timestamp,Red,IR
13:55:09.087,26.9376,88.8128
13:55:09.096,24.0626,82.5003
13:55:09.106,20.6876,78.2503
13:55:09.116,17.3751,71.1878
13:55:09.126,14.1251,66.8753
13:55:09.137,11.3125,61.6252
13:55:09.147,6.3125,54.1877
13:55:09.156,2.375,48.5002
13:55:09.166,-1.3125,41.3752
13:55:09.176,-4,35.2501
13:55:09.187,-6.75,30.7501
13:55:09.196,-8.125,27.4376
13:55:09.206,-10,23.8751
13:55:09.216,-10.5,22.2501
13:55:09.226,-11,22.3126
13:55:09.239,-10.6875,20.8126
13:55:09.246,-10.25,21.0626
13:55:09.256,-9.375,21.8126
13:55:09.266,-10.1875,22.6876
13:55:09.276,-10.875,22.1876
13:55:09.305,-10.75,21.1251
13:55:09.306,-11.8125,20.5626
13:55:09.309,-13.1251,18.3126
13:55:09.350,-15.0626,15.1876
13:55:09.353,-16.5001,12.6875
13:55:09.354,-18.8126,9.75
13:55:09.356,-20.3751,4.5
13:55:09.365,-23.2501,1.375
13:55:09.367,-24.8751,-4
13:55:09.395,-28.7501,-8.5
13:55:09.399,-30.2501,-13.2501
13:55:09.400,-33.7501,-17.3751
13:55:09.406,-35.4376,-22.9376
13:55:09.437,-38.3126,-26.5001
13:55:09.440,-39.8752,-31.3126
13:55:09.441,-42.1877,-34.8751
13:55:09.448,-43.5627,-39.0001
13:55:09.469,-45.6877,-42.4377
13:55:09.474,-47.6877,-45.3127
13:55:09.477,-49.2502,-49.1877
13:55:09.487,-50.0002,-50.9377
13:55:09.496,-51.0002,-54.8752
13:55:09.506,-52.2502,-55.8127
13:55:09.517,-52.9377,-58.4377
13:55:09.527,-53.3127,-59.1877
13:55:09.568,-53.8127,-61.5627
13:55:09.570,-54.2502,-62.2502
13:55:09.585,-55.1252,-64.2502
13:55:09.589,-55.5627,-65.2503
13:55:09.604,-56.2502,-66.5003
13:55:09.604,-56.7502,-68.6878
13:55:09.606,-57.6877,-71.1253
13:55:09.607,-58.8127,-71.3128
13:55:09.616,-59.5627,-73.5628
13:55:09.627,-60.5002,-75.4378
13:55:09.637,-61.3127,-77.5628
13:55:09.646,-61.7502,-79.5003
13:55:09.656,-62.1252,-78.5628
13:55:09.667,-59.1877,-78.2503
13:55:09.676,-53.7502,-68.9378
13:55:09.686,-42.5627,-55.0627
13:55:09.696,-28.4376,-31.4376
13:55:09.706,-12.375,-5.5625
13:55:09.716,3.625,23.5001
13:55:09.727,19.4376,50.7502
13:55:09.736,31.6251,75.1878
13:55:09.746,41.7502,95.1254
13:55:09.756,47.6877,107.8129
13:55:09.772,51.5627,116.3129
13:55:09.786,51.7502,118.5005
13:55:09.797,51.2502,118.563
13:55:09.806,48.0002,116.5004
13:55:09.816,46.2502,111.3754
13:55:09.826,42.2502,107.2504
13:55:09.836,38.7501,100.6879
13:55:09.847,35.8126,94.7504
13:55:09.856,31.6251,89.1878
13:55:09.866,29.7501,84.1253
13:55:09.877,26.7501,80.0003
13:55:09.886,23.6251,74.9378
13:55:09.898,21.0001,69.2503
13:55:09.907,17.0626,63.4377
13:55:09.916,13.2501,58.0627
13:55:09.927,9.875,50.5002
13:55:09.936,4.9375,43.6252
13:55:09.947,3.0625,38.3751
13:55:09.956,1.75,35.2501
13:55:09.990,0.4375,34.3126
13:55:09.991,1.1875,32.8751
13:55:09.995,0.75,33.0001
13:55:09.996,0.375,33.1876
13:55:10.038,0.875,32.8751
13:55:10.040,0.5,32.8751
13:55:10.042,0.4375,31.6876
13:55:10.047,-0.25,31.5626
13:55:10.048,-0.8125,30.5626
13:55:10.057,-2.375,28.5626
13:55:10.088,-3.8125,25.6251
13:55:10.090,-6.125,21.3126
13:55:10.092,-8.6875,18.1251
13:55:10.097,-10.625,13.6876
13:55:10.124,-12.875,8.1875
13:55:10.127,-15.1251,4.5
13:55:10.128,-17.9376,-0.3125
13:55:10.149,-20.8751,-5.125
13:55:10.151,-23.4376,-9.4375
13:55:10.161,-25.0001,-14.6251
13:55:10.166,-28.1876,-19.1251
13:55:10.176,-30.0626,-23.0001
13:55:10.186,-32.2501,-27.7501
13:55:10.196,-34.8751,-31.8126
13:55:10.207,-36.2501,-35.9376
13:55:10.217,-38.8751,-39.0626
13:55:10.228,-40.7502,-43.8752
13:55:10.236,-42.2502,-45.5627
13:55:10.246,-43.9377,-50.1252
13:55:10.256,-45.0002,-52.3127
13:55:10.266,-46.9377,-56.1877
13:55:10.276,-47.1877,-56.9377
13:55:10.290,-48.8127,-60.3127
13:55:10.296,-49.2502,-60.8752
13:55:10.306,-50.5002,-61.5627
13:55:10.317,-50.0627,-63.8752
13:55:10.326,-50.1877,-64.1252
13:55:10.336,-51.0002,-65.9378
13:55:10.346,-51.4377,-67.6878
13:55:10.356,-52.0627,-68.0628
13:55:10.367,-53.3752,-71.0003
13:55:10.376,-53.8752,-72.5628
13:55:10.387,-55.6877,-73.4378
13:55:10.396,-55.9377,-76.3753
13:55:10.406,-57.3127,-77.9378
13:55:10.416,-58.3752,-79.5003
13:55:10.426,-58.4377,-81.5628
13:55:10.436,-58.8752,-82.6253
13:55:10.447,-59.8752,-84.0628
13:55:10.456,-60.6252,-86.7503
13:55:10.466,-62.1252,-87.6253
13:55:10.481,-61.5002,-89.9378
13:55:10.492,-59.5002,-88.7503
13:55:10.501,-55.3752,-82.9378
13:55:10.511,-44.4377,-69.1253
13:55:10.521,-29.0001,-47.2502
13:55:10.531,-12.875,-19.8751
13:55:10.543,4.5,8.125
13:55:10.551,21.2501,37.5001
13:55:10.561,34.0626,63.6252
13:55:10.572,44.8752,84.4378
13:55:10.581,52.3752,101.1879
13:55:10.591,56.4377,110.8754
13:55:10.602,58.2502,114.9379
13:55:10.613,58.5627,117.438
13:55:10.622,55.8752,115.5004
13:55:10.631,53.5627,110.8129
13:55:10.641,49.8752,105.4379
13:55:10.651,44.8127,99.4379
13:55:10.683,42.2502,93.4379
13:55:10.685,39.4377,88.1878
13:55:10.687,37.1251,83.3128
13:55:10.694,34.9376,77.9378
13:55:10.701,31.6251,73.5003
13:55:10.711,27.6876,69.3753
13:55:10.721,25.3126,62.3752
13:55:10.732,21.2501,56.4377
13:55:10.741,18.0626,49.5627
13:55:10.767,15.3126,44.9377
13:55:10.771,12.8125,40.6877
13:55:10.774,11.1875,36.6876
13:55:10.806,10.6875,34.3126
13:55:10.807,9.8125,33.6876
13:55:10.809,10.6875,34.1876
13:55:10.818,11.25,33.6876
13:55:10.821,12.125,34.7501
13:55:10.850,12.4375,35.9376
13:55:10.852,12.0625,35.5626
13:55:10.856,11.3125,35.7501
13:55:10.900,11,34.1251
13:55:10.902,9.625,32.3751
13:55:10.929,8.75,29.7501
13:55:10.929,6.375,27.3126
13:55:10.930,4.6875,23.3126
13:55:10.944,1.9375,18.6876
13:55:10.959,-1.0625,14.8751
13:55:10.960,-4.125,11.125
13:55:10.961,-6.25,5.3125
13:55:10.976,-9.25,0
13:55:10.991,-11.25,-4.25
13:55:10.993,-13.8751,-8.9375
13:55:11.008,-16.9376,-14.0001
13:55:11.012,-19.0001,-17.8126
13:55:11.014,-21.5626,-22.1876
13:55:11.022,-23.1251,-26.0001
13:55:11.031,-25.6251,-29.9376
13:55:11.045,-27.8126,-33.8751
13:55:11.051,-29.1876,-37.3751
13:55:11.061,-30.7501,-40.1877
13:55:11.072,-33.8751,-46.6252
13:55:11.081,-34.3126,-49.2502
13:55:11.091,-36.5626,-51.1877
13:55:11.101,-37.4376,-53.6877
13:55:11.111,-38.3751,-57.0002
13:55:11.122,-39.6252,-56.8127
13:55:11.131,-40.5002,-59.7502
13:55:11.142,-41.0627,-60.3127
13:55:11.152,-41.0002,-62.2502
13:55:11.163,-42.1252,-63.6252
13:55:11.173,-41.4377,-64.3127
13:55:11.182,-43.0627,-64.8127
13:55:11.191,-42.9377,-67.7503
13:55:11.203,-44.5002,-67.3753
13:55:11.212,-45.0627,-70.9378
13:55:11.223,-45.1252,-71.6253
13:55:11.232,-47.5627,-74.0628
13:55:11.243,-47.6252,-76.1878
13:55:11.252,-49.4377,-78.1253
13:55:11.261,-50.5627,-80.7503
13:55:11.272,-51.1252,-81.9378
13:55:11.281,-52.1877,-84.5003
13:55:11.291,-51.6252,-83.8128
13:55:11.302,-46.6877,-77.1878
13:55:11.311,-37.0626,-64.3127
13:55:11.322,-24.3751,-44.6252
13:55:11.332,-8.1875,-18.2501
13:55:11.343,7,9.75
13:55:11.351,22.2501,36.5626
13:55:11.362,33.3126,61.0627
13:55:11.373,43.5627,79.7503
13:55:11.381,49.0627,93.4379
13:55:11.392,51.7502,101.6879
13:55:11.401,52.9377,104.5629
13:55:11.413,51.1252,105.0004
13:55:11.423,49.5002,101.1254
13:55:11.432,44.6252,95.8754
13:55:11.443,41.4377,89.7503
13:55:11.451,36.2501,83.6253
13:55:11.463,31.8126,75.2503
13:55:11.471,28.1876,69.3753
13:55:11.505,24.0626,62.6252
13:55:11.507,21.5626,57.9377
13:55:11.510,17.5001,53.1877
13:55:11.513,14.6876,47.3127
13:55:11.542,11.5625,41.7502
13:55:11.544,8.1875,35.5001
13:55:11.546,5.5,30.4376
13:55:11.552,2,25.1876
13:55:11.587,0.6875,21.6251
13:55:11.587,-1.3125,17.8126
13:55:11.590,-2.0625,16.6876
13:55:11.619,-2.5,15.2501
13:55:11.621,-1.9375,15.1876
13:55:11.623,-1.75,16.2501
13:55:11.628,-0.75,16.1251
13:55:11.632,-0.5625,16.7501
13:55:11.662,-0.875,17.0626
13:55:11.663,-1.6875,16.8751
13:55:11.666,-1.75,16.9376
13:55:11.672,-2.6875,14.6251
13:55:11.681,-4.5625,13.5001
13:55:11.694,-5.6875,11
13:55:11.702,-6.5625,8
13:55:11.712,-7.9375,6.0625
13:55:11.723,-9.375,2.0625
13:55:11.732,-12.0625,-2.3125
13:55:11.743,-14.0626,-5.9375
13:55:11.753,-16.4376,-10
13:55:11.762,-19.5626,-13.9376
13:55:11.773,-21.6251,-18.5001
13:55:11.783,-24.1251,-22.3751
13:55:11.795,-26.1876,-27.5626
13:55:11.802,-29.0626,-30.6251
13:55:11.813,-31.3751,-36.2501
13:55:11.822,-34.5001,-39.2501
13:55:11.832,-36.5626,-44.3127
13:55:11.843,-38.5001,-47.6252
13:55:11.853,-39.9377,-50.0627
13:55:11.862,-42.0627,-52.9377
13:55:11.872,-42.8127,-55.5627
13:55:11.882,-43.9377,-57.4377
13:55:11.892,-44.8127,-60.3127
13:55:11.902,-45.0002,-62.0002
13:55:11.914,-46.9377,-63.5002
13:55:11.922,-47.5627,-65.9378
13:55:11.956,-48.5002,-66.8128
13:55:11.958,-49.0627,-69.5003
13:55:11.960,-50.0627,-70.2503
13:55:11.962,-51.5002,-71.8753
13:55:11.974,-52.7502,-75.3753
13:55:11.983,-54.1252,-76.5628
13:55:11.992,-54.7502,-79.1878
13:55:12.002,-56.1252,-80.4378
13:55:12.012,-56.9377,-83.5628
13:55:12.023,-58.3752,-84.1253
13:55:12.033,-58.0627,-87.1878
13:55:12.042,-57.5002,-85.1253
13:55:12.052,-51.9377,-79.4378
13:55:12.062,-43.0002,-65.3753
13:55:12.072,-29.5626,-45.6877
13:55:12.082,-13.5001,-20.6876
13:55:12.093,1.4375,6
13:55:12.103,16.1251,31.6251
13:55:12.112,28.6876,56.8127
13:55:12.123,38.5001,75.2503
13:55:12.132,45.3127,90.3128
13:55:12.143,49.4377,98.6254
13:55:12.152,52.0627,104.6254
13:55:12.162,51.6877,104.6879
13:55:12.173,50.8127,104.3754
13:55:12.182,48.0627,99.5629
13:55:12.193,45.3127,95.8129
13:55:12.202,41.4377,88.8753
13:55:12.212,37.6876,83.6253
13:55:12.226,33.5626,76.0003
13:55:12.258,30.3751,70.3753
13:55:12.261,26.3126,64.6252
13:55:12.329,23.0626,59.3752
13:55:12.331,18.9376,53.0627
13:55:12.331,15.6251,47.2502
13:55:12.370,11.375,40.5627
13:55:12.370,6.875,35.1876
13:55:12.370,3.25,29.2501
13:55:12.371,0.3125,23.4376
13:55:12.409,-1.875,18.0001
13:55:12.412,-3.5,14.9376
13:55:12.427,-4.8125,12
13:55:12.427,-5.375,11.25
13:55:12.429,-5.25,10.8125
13:55:12.435,-4.9375,11.0625
13:55:12.443,-5.25,12.9375
13:55:12.453,-4.75,12.25
13:55:12.462,-4.6875,11.75
13:55:12.472,-4.4375,12
13:55:12.482,-4.625,11.8125
13:55:12.492,-5.8125,10.6875
13:55:12.503,-7.625,7.375
13:55:12.512,-9,4.4375
13:55:12.523,-11.25,0.6875
13:55:12.533,-21.6876,-17.6876
13:55:12.545,-24.0626,-21.1251
13:55:12.552,-25.6876,-25.0001
13:55:12.562,-27.3126,-30.0001
13:55:12.572,-28.8751,-33.4376
13:55:12.583,-34.4376,-44.9377
13:55:12.592,-35.8751,-47.1252
13:55:12.602,-35.9376,-50.0627
13:55:12.613,-37.6251,-52.3127
13:55:12.623,-37.3751,-54.1252
13:55:12.633,-38.5626,-55.6877
13:55:12.642,-38.7501,-57.0002
13:55:12.652,-39.5002,-58.3752
13:55:12.662,-39.9377,-59.2502
13:55:12.672,-40.3752,-60.0002
13:55:12.683,-41.0002,-61.5002
13:55:12.693,-41.0627,-62.2502
13:55:12.702,-41.5002,-64.4377
13:55:12.713,-41.5627,-64.3127
13:55:12.722,-43.0002,-64.8127
13:55:12.732,-43.5002,-67.7503
13:55:12.743,-44.3127,-67.9378
13:55:12.752,-45.1877,-69.8128
13:55:12.762,-45.6252,-71.2503
13:55:12.772,-45.8127,-71.8753
13:55:12.783,-46.3127,-73.0628
13:55:12.792,-46.8127,-73.1878
13:55:12.802,-45.8752,-73.8753
13:55:12.812,-42.8752,-70.0003
13:55:12.822,-36.3751,-61.7502
13:55:12.832,-25.6251,-45.1252
13:55:12.842,-12.4375,-22.0001
13:55:12.853,3.6875,3.375
13:55:12.864,18.6876,32.1251
13:55:12.874,32.6251,57.3752
13:55:12.883,43.3752,81.1878
13:55:12.892,51.5002,98.6879
13:55:12.902,56.6877,109.9379
13:55:12.912,57.9377,116.6879
13:55:12.922,57.5627,117.0629
13:55:12.932,55.8127,115.9379
13:55:12.946,52.5627,112.3129
13:55:12.977,49.7502,107.3129
13:55:12.979,45.6252,103.0629
13:55:12.986,43.0002,95.3754
13:55:12.987,40.3127,90.8129
13:55:13.016,36.0626,84.4378
13:55:13.018,33.1251,78.6878
13:55:13.021,31.0001,74.2503
13:55:13.059,29.1876,69.4378
13:55:13.060,26.6251,65.6253
13:55:13.062,24.9376,60.8752
13:55:13.068,20.9376,56.0627
13:55:13.070,18.1251,49.6877
13:55:13.072,14.3126,43.9377
13:55:13.104,12.1875,38.6876
13:55:13.106,9.4375,33.9376
13:55:13.109,8.3125,31.3751
13:55:13.115,7.875,28.8751
13:55:13.123,7.625,27.2501
13:55:13.132,7.8125,27.6251
13:55:13.142,8.75,27.3126
13:55:13.152,8.0625,27.6876
13:55:13.162,8.125,26.5626
13:55:13.173,7.8125,26.6251
13:55:13.184,7.8125,26.3751
13:55:13.192,5.9375,24.7501
13:55:13.203,4.3125,22.8751
13:55:13.237,3,19.1876
13:55:13.238,1.5,14.9376
13:55:13.240,-0.8125,12.8125
13:55:13.248,-2.9375,7.9375
13:55:13.252,-5.125,3.75
13:55:13.262,-7.5625,-0.625
13:55:13.272,-9.875,-4.25
13:55:13.282,-12.5,-10.3125
13:55:13.297,-15.0001,-14.9376
13:55:13.302,-17.0001,-18.3126
13:55:13.312,-19.5001,-23.7501
13:55:13.322,-22.2501,-27.6876
13:55:13.333,-23.6876,-31.5001
13:55:13.343,-26.1876,-36.6251
13:55:13.352,-28.8751,-39.8127
13:55:13.363,-30.4376,-43.3752
13:55:13.373,-31.5001,-46.6877
13:55:13.382,-33.5001,-50.3752
13:55:13.393,-35.1251,-52.6252
13:55:13.403,-37.1876,-54.8752
13:55:13.412,-38.0001,-57.8127
13:55:13.423,-39.5627,-59.8127
13:55:13.432,-40.4377,-61.8752
13:55:13.442,-41.3127,-62.7502
13:55:13.452,-41.0627,-64.3127
13:55:13.463,-42.0627,-65.5003
13:55:13.472,-42.2502,-66.8128
13:55:13.482,-43.5002,-67.9378
13:55:13.492,-44.1877,-69.7503
13:55:13.502,-45.0002,-71.8128
13:55:13.513,-46.8127,-72.9378
13:55:13.522,-47.3752,-76.1878
13:55:13.532,-48.5627,-77.3753
13:55:13.542,-50.5002,-78.3128
13:55:13.552,-50.3752,-81.1253
13:55:13.562,-51.1252,-82.1878
13:55:13.572,-52.3127,-84.7503
13:55:13.582,-52.8127,-85.8753
13:55:13.592,-53.5627,-86.8753
13:55:13.602,-50.5627,-84.9378
13:55:13.614,-45.0002,-77.0003
13:55:13.622,-34.6251,-63.2502
13:55:13.646,-20.1251,-41.4377
13:55:13.680,-4.375,-14.5626
13:55:13.713,11.4375,13
13:55:13.715,25.9376,40.8127
13:55:13.718,38.5626,64.7502
13:55:13.718,48.3752,83.7503
13:55:13.718,54.1252,97.5004
13:55:13.748,57.0627,105.5629
13:55:13.751,57.6252,109.8754
13:55:13.754,57.2502,109.0004
13:55:13.759,55.0627,106.7504
13:55:13.785,51.8127,103.5629
13:55:13.787,48.5002,97.7504
13:55:13.792,45.3752,92.5004
13:55:13.793,42.5002,87.0628
13:55:13.815,39.1252,81.1253
13:55:13.818,36.0626,76.6878
13:55:13.823,33.5626,72.1253
13:55:13.832,30.7501,68.3753
13:55:13.842,28.5626,62.3127
13:55:13.852,24.9376,58.0627
13:55:13.862,21.2501,51.0627
13:55:13.880,17.5626,45.0627
13:55:13.888,10.5625,31.1251
13:55:13.897,9.1875,28.6876
13:55:13.907,8.5625,26.4376
13:55:13.918,8.5,26.3126
13:55:13.927,10.0625,27.0001
13:55:13.937,11.125,27.9376
13:55:13.948,12.3125,29.6251
13:55:13.959,12.1875,29.7501
13:55:13.967,12.125,29.1876
13:55:13.978,12.4375,28.8751
13:55:13.987,11.5,27.9376
13:55:13.998,10.125,25.1251
13:55:14.007,6.9375,22.2501
13:55:14.018,5.6875,18.2501
13:55:14.028,3.3125,14.2501
13:55:14.038,-1.125,8.5625
13:55:14.047,-3.6875,3.9375
13:55:14.058,-6.3125,-1.5
13:55:14.067,-8.8125,-6.5625
13:55:14.077,-11.5,-11.8125
13:55:14.087,-14.4376,-15.8126
13:55:14.098,-16.3126,-21.0626
13:55:14.108,-19.6876,-25.3126
13:55:14.117,-21.6876,-28.7501
13:55:14.128,-22.8126,-32.6251
13:55:14.137,-25.6251,-36.8751
13:55:14.147,-27.6876,-40.1877
13:55:14.157,-29.4376,-42.6252
13:55:14.167,-30.6251,-47.0627
13:55:14.178,-33.1251,-50.6252
13:55:14.192,-35.4376,-54.6252
13:55:14.199,-37.7501,-56.0002
13:55:14.207,-38.0001,-59.5002
13:55:14.217,-39.6252,-60.9377
13:55:14.227,-40.2502,-63.5002
13:55:14.237,-41.3127,-63.4377
13:55:14.247,-40.3752,-64.5627
13:55:14.258,-40.5627,-63.9377
13:55:14.267,-40.3127,-65.8753
13:55:14.277,-40.1252,-65.4377
13:55:14.287,-40.2502,-66.8753
13:55:14.297,-40.4377,-67.0628
13:55:14.308,-40.1877,-68.5003
13:55:14.317,-40.1877,-68.5003
13:55:14.327,-41.1252,-70.4378
13:55:14.340,-40.8127,-71.3753
13:55:14.347,-40.9377,-72.3128
13:55:14.357,-42.9377,-73.8753
13:55:14.369,-43.0627,-76.1253
13:55:14.397,-43.4377,-76.8128
13:55:14.399,-43.8127,-79.0628
13:55:14.402,-44.3127,-80.0628
13:55:14.408,-44.5627,-81.6878
13:55:14.447,-45.1877,-82.6253
13:55:14.447,-43.5627,-81.4378
13:55:14.453,-38.3126,-75.2503
13:55:14.458,-29.3751,-63.1877
13:55:14.459,-14.7501,-41.5002
13:55:14.493,-0.9375,-15.3126
13:55:14.495,14.9376,10.875
13:55:14.499,30.1251,38.5001
13:55:14.526,41.9377,62.8127
13:55:14.527,50.6877,81.5003
13:55:14.555,56.5627,95.1254
13:55:14.555,59.1252,105.0629
13:55:14.559,61.3127,108.3754
13:55:14.559,60.3752,110.0629
13:55:14.571,58.8127,106.2504
13:55:14.573,55.5002,103.3754
13:55:14.579,52.5002,97.8129
13:55:14.590,49.3752,91.2504
13:55:14.598,44.7502,85.3753
13:55:14.609,42.3752,79.5628
13:55:14.617,39.0001,74.8128
13:55:14.628,36.7501,69.1878
13:55:14.639,34.1876,65.2502
13:55:14.648,30.9376,60.1877
13:55:14.658,28.0626,55.1877
13:55:14.669,25.3126,49.4377
13:55:14.677,22.0626,44.1252
13:55:14.688,20.5001,39.0001
13:55:14.698,18.7501,34.4376
13:55:14.708,18.3751,31.8751
13:55:14.718,17.5626,29.9376
13:55:14.728,17.8126,29.0626
13:55:14.738,18.0001,28.8751
13:55:14.749,19.3126,29.1876
13:55:14.757,20.5626,30.9376
13:55:14.769,21.1876,31.1251
13:55:14.779,21.8751,32.3126
13:55:14.788,21.3126,31.2501
13:55:14.798,20.5626,30.3751
13:55:14.808,19.1876,28.6251
13:55:14.818,17.2501,25.9376
13:55:14.829,14.9376,21.3126
13:55:14.838,13.1876,18.1251
13:55:14.847,10.5,14.2501
13:55:14.858,8.0625,10.1875
13:55:14.868,6.0625,6.25
13:55:14.879,3.6875,2.5
13:55:14.889,1.875,-1.5
13:55:14.899,-0.6875,-5.6875
13:55:14.908,-3.5,-9.625
13:55:14.918,-5.5,-15.1251
13:55:14.930,-7.5625,-18.6251
13:55:14.945,-9.625,-23.2501
13:55:14.949,-11.8125,-28.0001
13:55:14.964,-14.7501,-30.5626
13:55:14.978,-16.8751,-35.5626
13:55:14.994,-19.8751,-40.3127
13:55:14.996,-22.6251,-44.5627
13:55:15.012,-25.2501,-48.0002
13:55:15.014,-26.2501,-51.5002
13:55:15.018,-27.4376,-54.6877
13:55:15.028,-28.6876,-56.6252
13:55:15.038,-29.3126,-57.8127
13:55:15.049,-29.9376,-58.4377
13:55:15.058,-29.3126,-60.1877
13:55:15.068,-30.3126,-61.5002
13:55:15.079,-30.3126,-62.2502
13:55:15.088,-30.6251,-62.4377
13:55:15.098,-30.5001,-63.1877
13:55:15.109,-30.5626,-64.3752
13:55:15.141,-30.9376,-63.8127
13:55:15.143,-31.8126,-65.8752
13:55:15.146,-33.1251,-68.7503
13:55:15.149,-34.2501,-70.5628
13:55:15.179,-36.0001,-72.5628
13:55:15.182,-36.6876,-75.1253
13:55:15.185,-39.2501,-75.8128
13:55:15.190,-40.5627,-79.4378
13:55:15.221,-41.2502,-81.0628
13:55:15.223,-42.8752,-83.6878
13:55:15.225,-43.3752,-85.4378
13:55:15.233,-44.2502,-87.0003
13:55:15.241,-44.3752,-87.3128
13:55:15.272,-44.3127,-88.5628
13:55:15.275,-41.8752,-86.3753
13:55:15.277,-35.3751,-76.7503
13:55:15.280,-23.3126,-61.0627
13:55:15.298,-8.0625,-37.1251
13:55:15.300,7.6875,-11.1875
13:55:15.308,24.5626,16.5001
13:55:15.318,38.3751,43.1252
13:55:15.328,49.3752,65.5003
13:55:15.339,58.6252,84.3128
13:55:15.349,63.8752,98.0629
13:55:15.359,67.0628,104.6254
13:55:15.369,68.6878,108.3129
13:55:15.379,66.9378,108.0629
13:55:15.389,65.4377,105.0629
13:55:15.400,61.8127,100.9379
13:55:15.409,58.1877,94.6879
13:55:15.418,55.0002,89.1878
13:55:15.431,51.4377,83.0628
13:55:15.440,49.0627,78.3128
13:55:15.448,46.0627,74.0628
13:55:15.458,43.5002,68.8128
13:55:15.468,40.4377,64.6252
13:55:15.478,37.2501,59.5627
13:55:15.489,34.1876,53.6877
13:55:15.499,30.3751,47.7502
13:55:15.508,27.0626,40.8752
13:55:15.518,24.5001,36.0626
13:55:15.530,21.8751,31.8751
13:55:15.538,19.6876,28.8126
13:55:15.549,18.8751,26.7501
13:55:15.559,18.4376,24.9376
13:55:15.569,18.0001,24.7501
13:55:15.578,18.6876,25.5626
13:55:15.588,19.3126,25.7501
13:55:15.599,19.8126,26.3126
13:55:15.608,20.2501,26.9376
13:55:15.618,19.0626,26.1251
13:55:15.628,18.6876,26.4376
13:55:15.639,17.8126,23.1876
13:55:15.650,15.3126,21.5001
13:55:15.658,13.5626,18.0001
13:55:15.669,11.125,13.6251
13:55:15.680,7.8125,9.5625
13:55:15.695,5.0625,5.75
13:55:15.699,2.25,0.25
13:55:15.708,-0.9375,-5.25
13:55:15.718,-4.625,-10.0625
13:55:15.729,-7.4375,-14.4376
13:55:15.738,-9.4375,-19.3751
13:55:15.748,-12,-23.8126
13:55:15.758,-14.8751,-28.0001
13:55:15.769,-16.9376,-31.2501
13:55:15.795,-18.8126,-35.5626
13:55:15.797,-21.0001,-39.1252
13:55:15.800,-23.1251,-43.1252
13:55:15.810,-25.1876,-46.5627
13:55:15.819,-27.2501,-48.6877
13:55:15.842,-29.0626,-51.9377
13:55:15.845,-29.8126,-55.1252
13:55:15.848,-31.5001,-57.3127
13:55:15.880,-32.8126,-59.5002
13:55:15.882,-34.4376,-61.1877
13:55:15.885,-35.1251,-63.0627
13:55:15.891,-36.0001,-64.9377
13:55:15.918,-37.0626,-65.6252
13:55:15.920,-37.3126,-67.6878
13:55:15.922,-38.3126,-69.3753
13:55:15.930,-38.8126,-70.9378
13:55:15.944,-39.3126,-71.9378
13:55:15.951,-41.2502,-72.9378
13:55:15.983,-41.3752,-75.7503
13:55:15.985,-41.2502,-76.0628
13:55:15.989,-43.3127,-77.7503
13:55:15.990,-43.3127,-79.0003
13:55:16.007,-42.4377,-77.6253
13:55:16.010,-38.2501,-73.7503
13:55:16.018,-30.0626,-62.3752
13:55:16.029,-18.8751,-43.5627
13:55:16.039,-4.6875,-21.6876
13:55:16.048,10.25,4.8125
13:55:16.058,24.6876,29.5001
13:55:16.073,37.3751,53.0002
13:55:16.079,47.4377,72.9378
13:55:16.089,54.7502,87.7503
13:55:16.098,58.1877,97.0629
13:55:16.109,60.2502,101.8754
13:55:16.119,59.2502,103.1879
13:55:16.128,57.4377,99.8129
13:55:16.139,54.8127,97.1879
13:55:16.149,51.0627,90.8754
13:55:16.159,47.5002,85.0003
13:55:16.169,43.9377,77.3753
13:55:16.179,40.5002,72.4378
13:55:16.190,36.6251,67.8753
13:55:16.199,33.6876,61.7502
13:55:16.209,31.6251,57.2502
13:55:16.218,28.7501,51.4377
13:55:16.229,24.5626,46.8127
13:55:16.238,21.9376,40.1877
13:55:16.258,17.9376,32.7501
13:55:16.262,14.5626,27.1876
13:55:16.277,11.4375,20.7501
13:55:16.280,9.3125,17.5001
13:55:16.295,7.8125,13.6876
13:55:16.312,6.5,12.125
13:55:16.315,6.375,9.6875
13:55:16.320,6.375,10.3125
13:55:16.329,6.75,10.4375
13:55:16.338,7.625,11.4375
13:55:16.349,7.9375,12
13:55:16.358,7.625,11.9375
13:55:16.368,8,11.6875
13:55:16.378,6.3125,10.8125
13:55:16.389,5.9375,8.5625
13:55:16.399,3.125,6.625
13:55:16.408,1.6875,3.375
13:55:16.418,-0.9375,-0.875
13:55:16.429,-3.4375,-4.4375
13:55:16.438,-5.8125,-9.0625
13:55:16.449,-8.1875,-13.5626
13:55:16.458,-11.4375,-18.9376
13:55:16.469,-13.8751,-23.0001
13:55:16.479,-17.0001,-26.7501
13:55:16.489,-18.7501,-32.0626
13:55:16.498,-21.9376,-37.0001
13:55:16.508,-24.6876,-41.0627
13:55:16.519,-26.2501,-45.6252
13:55:16.528,-30.1876,-50.6252
13:55:16.538,-32.1876,-54.0002
13:55:16.549,-33.9376,-56.7502
13:55:16.558,-34.9376,-60.5002
13:55:16.568,-36.8751,-63.3752
13:55:16.578,-38.5626,-65.2503
13:55:16.608,-39.2502,-68.1253
13:55:16.611,-40.5627,-69.1878
13:55:16.614,-41.3127,-71.9378
13:55:16.620,-42.1252,-73.3753
13:55:16.652,-42.9377,-75.3753
13:55:16.655,-43.1252,-76.1878
13:55:16.656,-44.4377,-77.3753
13:55:16.659,-44.0627,-78.3753
13:55:16.696,-45.6877,-79.9378
13:55:16.698,-45.8752,-81.3128
13:55:16.700,-47.0627,-83.2503
13:55:16.727,-48.1252,-84.6878
13:55:16.728,-49.2502,-86.5628
13:55:16.730,-50.3127,-88.3128
13:55:16.735,-51.1877,-90.5003
13:55:16.741,-51.8752,-91.7504
13:55:16.766,-51.7502,-92.3129
13:55:16.769,-51.8752,-92.3129
13:55:16.771,-47.5627,-88.7503
13:55:16.780,-40.3127,-76.8753
13:55:16.790,-26.5001,-57.9377
13:55:16.798,-11.3125,-32.0001
13:55:16.808,5.125,-5.625
13:55:16.821,20.7501,23.1876
13:55:16.831,33.7501,48.9377
13:55:16.838,45.4377,70.6878
13:55:16.849,52.9377,87.3753
13:55:16.859,58.1877,97.7504
13:55:16.868,60.0627,104.2504
13:55:16.878,60.5627,105.5004
13:55:16.889,58.1877,104.5629
13:55:16.899,55.3127,100.0004
13:55:16.909,52.8127,95.4379
13:55:16.918,48.6877,89.3753
13:55:16.928,45.6877,84.1253
13:55:16.938,41.7502,78.4378
13:55:16.949,39.4377,73.5003
13:55:16.959,37.5626,69.0003
13:55:16.968,34.5001,64.6877
13:55:16.978,32.6251,60.9377
13:55:16.989,29.0001,54.8752
13:55:16.999,25.4376,49.9377
13:55:17.008,22.5001,42.1877
13:55:17.018,19.4376,37.2501
13:55:17.029,16.5001,31.1251
13:55:17.038,13.8751,27.1251
13:55:17.049,11.625,22.3751
13:55:17.075,10.0625,20.0626
13:55:17.078,9.6875,18.0626
13:55:17.081,10.25,18.7501
13:55:17.089,10.5625,17.9376
13:55:17.099,10.4375,19.0626
13:55:17.109,10.875,19.0001
13:55:17.118,11.5625,20.2501
13:55:17.128,11.1875,19.4376
13:55:17.138,10.1875,19.4376
13:55:17.150,8.9375,17.3751
13:55:17.158,8.125,15.1251
13:55:17.169,5.3125,11.9375
13:55:17.179,4.375,8.75
13:55:17.189,0.8125,4.375
13:55:17.204,-1.375,0.75
13:55:17.213,-4.4375,-3.9375
13:55:17.219,-6.8125,-8.75
13:55:17.229,-9.125,-13.7501
13:55:17.240,-12,-17.9376
13:55:17.248,-13.6876,-21.6876
13:55:17.259,-16.8751,-26.9376
13:55:17.269,-18.8126,-31.0626
13:55:17.278,-21.9376,-35.6876
13:55:17.289,-23.3751,-39.3751
13:55:17.301,-25.8126,-43.6252
13:55:17.311,-27.3126,-47.5002
13:55:17.341,-29.0001,-49.0627
13:55:17.343,-30.3751,-52.2502
13:55:17.346,-30.4376,-55.2502
13:55:17.350,-32.1251,-57.6877
13:55:17.388,-33.5626,-59.0002
13:55:17.393,-33.8126,-61.6252
13:55:17.395,-34.0001,-63.7502
13:55:17.397,-33.8126,-64.0627
13:55:17.403,-33.6251,-64.0627
13:55:17.415,-33.6876,-65.7503
13:55:17.421,-34.2501,-66.2503
13:55:17.453,-35.1251,-67.5628
13:55:17.455,-34.8126,-68.5003
13:55:17.460,-35.2501,-69.8753
13:55:17.465,-36.0626,-70.9378
13:55:17.473,-36.0626,-73.3128
13:55:17.490,-36.5626,-72.5628
13:55:17.492,-36.5001,-74.7503
13:55:17.500,-36.6876,-77.1878
13:55:17.509,-37.1876,-77.7503
13:55:17.518,-38.3751,-80.7503
13:55:17.530,-38.8751,-81.6878
13:55:17.539,-38.5001,-82.6253
13:55:17.558,-37.5626,-81.3753
13:55:17.565,-31.3126,-75.1253
13:55:17.572,-20.5001,-59.8752
13:55:17.602,-5.0625,-38.6876
13:55:17.606,12.0625,-11
13:55:17.622,28.8751,16.8126
13:55:17.623,43.8752,45.0627
13:55:17.626,57.3127,69.2503
13:55:17.631,68.3128,90.1254
13:55:17.639,75.8753,107.2504
13:55:17.650,80.7503,116.1879
13:55:17.661,82.6253,123.2505
13:55:17.671,82.6878,123.5005
13:55:17.679,81.3128,123.0005
13:55:17.690,78.6253,118.188
13:55:17.699,75.3128,114.1879
13:55:17.709,71.5628,107.0004
13:55:17.719,68.3753,102.8754
13:55:17.728,64.8127,96.3129
13:55:17.740,62.3127,91.8754
13:55:17.751,59.6877,87.1878
13:55:17.758,57.3752,82.1878
13:55:17.769,54.5002,79.5003
13:55:17.780,51.3752,73.2503
13:55:17.789,47.6252,67.8753
13:55:17.800,43.7502,61.1252
13:55:17.809,39.6252,54.5627
13:55:17.819,36.2501,48.4377
13:55:17.829,33.0001,42.7502
13:55:17.841,30.6876,39.5627
13:55:17.850,29.3751,35.6876
13:55:17.861,29.0626,35.0001
13:55:17.870,30.0626,35.2501
13:55:17.885,29.3751,35.8751
13:55:17.895,29.6876,36.9376
13:55:17.905,30.0626,36.5001
13:55:17.914,29.5626,37.6876
13:55:17.923,29.1876,37.4376
13:55:17.935,27.5626,35.4376
13:55:17.946,26.8126,34.1251
13:55:17.956,25.0001,31.1876
13:55:17.965,22.0001,27.5001
13:55:17.975,19.5001,23.0626
13:55:17.985,16.0001,18.5001
13:55:17.995,13.5001,13.5626
13:55:18.005,9.1875,9
13:55:18.016,6.125,3.25
13:55:18.024,3.5,-2.125
13:55:18.034,-0.1875,-6.6875
13:55:18.052,-5.5,-15.0001
13:55:18.057,-7.125,-19.2501
13:55:18.098,-9.625,-22.6876
13:55:18.100,-11,-26.8126
13:55:18.106,-13.0625,-30.6251
13:55:18.106,-16.0626,-34.1876
13:55:18.112,-17.7501,-36.8751
13:55:18.117,-19.6876,-39.3127
13:55:18.143,-20.3751,-42.2502
13:55:18.146,-22.5001,-45.0627
13:55:18.150,-23.1876,-45.7502
13:55:18.155,-23.6876,-47.9377
13:55:18.183,-24.8126,-50.3752
13:55:18.184,-25.8126,-51.1252
13:55:18.186,-27.0626,-53.5002
13:55:18.222,-27.0626,-54.5002
13:55:18.225,-28.2501,-54.8752
13:55:18.227,-29.3751,-57.3127
13:55:18.234,-30.3126,-59.4377
13:55:18.236,-31.2501,-60.8127
13:55:18.245,-32.3126,-63.3752
13:55:18.255,-33.0001,-64.7502
13:55:18.265,-34.6876,-67.4378
13:55:18.275,-35.3751,-68.1878
13:55:18.284,-36.0626,-69.5628
13:55:18.295,-34.9376,-68.8753
13:55:18.305,-30.5001,-64.4377
13:55:18.314,-21.1251,-51.5002
13:55:18.331,-7.8125,-32.0001
13:55:18.359,5.4375,-7.375
13:55:18.359,20.6876,16.2501
13:55:18.365,34.4376,41.9377
13:55:18.367,45.8752,64.1252
13:55:18.374,55.0002,83.0003
13:55:18.385,61.1252,97.0004
13:55:18.395,65.1252,105.6879
13:55:18.405,66.6253,110.7504
13:55:18.416,66.1878,111.5629
13:55:18.425,64.0002,110.3129
13:55:18.435,61.3752,106.1879
13:55:18.445,57.8752,101.6254
13:55:18.455,54.1252,95.8754
13:55:18.464,51.0002,90.5629
13:55:18.475,47.1252,84.8128
13:55:18.485,44.5002,79.1253
13:55:18.495,40.9377,76.2503
13:55:18.505,38.2501,69.6253
13:55:18.515,35.0626,64.1877
13:55:18.524,31.2501,58.4377
13:55:18.535,27.1251,51.6877
13:55:18.545,22.1251,44.1252
13:55:18.555,18.3126,37.1251
13:55:18.565,14.9376,31.0626
13:55:18.575,13.0625,27.0626
13:55:18.585,11.875,23.9376
13:55:18.595,11.625,23.0626
13:55:18.605,12.875,23.3751
13:55:18.615,13.3751,24.7501
13:55:18.625,14.8126,25.2501
13:55:18.635,15.6251,27.5626
13:55:18.646,16.3751,29.4376
13:55:18.655,17.1251,30.1876
13:55:18.664,17.1251,31.0626
13:55:18.674,17.3751,30.3126
13:55:18.685,16.1251,29.9376
13:55:18.695,16.6251,28.8751
13:55:18.711,15.0001,27.1251
13:55:18.716,13.5626,24.8126
13:55:18.725,11.75,21.5626
13:55:18.735,10,17.9376
13:55:18.745,7.5625,13.4376
13:55:18.756,5.9375,10.625
13:55:18.765,4.3125,6.875
13:55:18.774,2.1875,3.25
13:55:18.785,0.625,1.0625
13:55:18.795,-1.0625,-3
13:55:18.804,-2.9375,-5.3125
13:55:18.814,-4.6875,-8.375
13:55:18.851,-7.125,-11.1875
13:55:18.854,-9.125,-14.5626
13:55:18.855,-11.875,-18.0001
13:55:18.858,-13.6876,-21.2501
13:55:18.891,-16.3751,-24.4376
13:55:18.892,-18.6876,-27.8126
13:55:18.894,-21.3751,-32.8126
13:55:18.969,-24.3751,-37.1876
13:55:18.970,-27.0626,-39.9377
13:55:19.005,-29.2501,-44.3127
13:55:19.005,-32.0626,-49.2502
13:55:19.005,-34.8751,-52.6252
13:55:19.007,-37.5626,-56.1252
13:55:19.012,-39.8127,-60.0627
13:55:19.014,-41.3127,-62.3752
13:55:19.022,-43.2502,-66.1253
13:55:19.030,-45.1877,-68.0003
13:55:19.040,-45.7502,-70.2503
13:55:19.051,-45.3127,-70.0003
13:55:19.060,-41.9377,-65.7503
13:55:19.070,-34.0626,-55.3127
13:55:19.086,-22.6251,-37.8126
13:55:19.090,-9.1875,-16.1876
13:55:19.101,4.375,8.75
13:55:19.110,16.6876,32.0626
13:55:19.120,26.8126,52.7502
13:55:19.130,32.4376,67.5628
13:55:19.139,12.3125,69.6253
13:55:19.150,-0.3125,60.1877
13:55:19.160,-12.9375,47.0002
13:55:19.169,-27.8751,36.5626
13:55:19.180,-46.2502,20.9376
13:55:19.191,-58.8752,11.1875
13:55:19.201,-76.0628,0.125
13:55:19.209,-82.3753,-2.4375
13:55:19.220,-70.2503,15.6251
13:55:19.230,-63.5627,27.0001
13:55:19.240,-58.8127,32.7501
13:55:19.250,-56.5002,37.5626
13:55:19.260,-49.2502,43.5002
13:55:19.270,-41.1252,52.3752
13:55:19.281,-36.6876,56.5627
13:55:19.290,-32.4376,59.3127
13:55:19.300,-27.1876,64.3127
13:55:19.310,-18.3126,72.9378
13:55:19.319,-8.4375,82.3753
13:55:19.330,1.0625,92.3754
13:55:19.339,9.125,100.4379
13:55:19.350,15.3126,106.1879
13:55:19.360,23.6876,114.0629
13:55:19.371,29.6876,121.063
13:55:19.380,35.3126,125.0005
13:55:19.389,38.8751,128.438
13:55:19.400,40.7502,128.813
13:55:19.410,41.9377,130.063
13:55:19.420,41.1252,127.1255
13:55:19.429,38.3126,123.3755
13:55:19.440,36.4376,118.688
13:55:19.450,34.3751,114.6254
13:55:19.461,31.6876,108.3754
13:55:19.494,28.4376,103.9379
13:55:19.496,24.6876,96.4379
13:55:19.498,21.0001,90.1254
13:55:19.501,17.3126,83.0003
13:55:19.537,13.8751,75.5003
13:55:19.539,10.125,69.5003
13:55:19.542,6.625,63.8752
13:55:19.549,4.375,59.3752
13:55:19.551,1.6875,52.9377
13:55:19.587,-1.375,47.1252
13:55:19.588,-3.75,41.7502
13:55:19.590,-5.75,36.1251
13:55:19.594,-6.5625,33.3126
13:55:19.636,-8.5,28.5001
13:55:19.638,-8.9375,25.7501
13:55:19.644,-10.1875,22.3751
13:55:19.646,-11.625,19.8126
13:55:19.646,-12.375,16.4376
13:55:19.655,-14.4376,12.0625
13:55:19.660,-16.0001,7.1875
13:55:19.670,-18.1876,3.375
13:55:19.679,-20.1251,-1.75
13:55:19.690,-21.7501,-5.9375
13:55:19.701,-24.2501,-10.5625
13:55:19.710,-26.3126,-15.6876
13:55:19.719,-27.5626,-19.5001
13:55:19.731,-29.7501,-24.5626
13:55:19.740,-30.8751,-27.5001
13:55:19.750,-29.1251,-26.6251
13:55:19.760,-22.0001,-19.6876
13:55:19.770,-8.5,-4.0625
13:55:19.780,6.875,19.0001
13:55:19.790,23.4376,43.8752
13:55:19.800,37.5001,68.4378
13:55:19.810,50.2502,92.1254
13:55:19.821,61.4377,112.5629
13:55:19.830,69.5003,128.7505
13:55:19.843,76.6878,142.813
13:55:19.850,80.6253,152.1256
13:55:19.859,84.0003,159.7506
13:55:19.869,86.0003,163.3131
13:55:19.880,87.5003,165.5006
13:55:19.890,87.4378,165.6881
13:55:19.900,87.6878,165.2506
13:55:19.911,85.7503,163.1881
13:55:19.920,83.8753,158.4381
13:55:19.930,81.2503,155.3131
13:55:19.940,77.5003,149.9381
13:55:19.950,76.3128,145.813
13:55:19.959,73.7503,141.688
13:55:19.970,70.2503,136.0005
13:55:19.981,67.3753,130.6255
13:55:19.990,63.9377,124.5005
13:55:20.001,60.3752,118.188
13:55:20.010,58.6252,112.4379
13:55:20.019,56.2502,108.2504
13:55:20.030,55.3127,104.1254
13:55:20.040,54.0627,101.4379
13:55:20.049,54.0002,99.0629
13:55:20.060,53.6252,97.0629
13:55:20.070,53.1252,95.3754
13:55:20.080,52.5002,93.8129
13:55:20.091,50.6877,91.8754
13:55:20.099,49.7502,89.2503
13:55:20.110,47.6877,87.0628
13:55:20.119,46.5627,83.9378
13:55:20.130,44.1252,81.2503
13:55:20.141,42.5627,77.4378
13:55:20.149,39.5627,73.5003
13:55:20.161,36.7501,68.6878
13:55:20.170,34.3751,63.4377
13:55:20.181,31.4376,58.5627
13:55:20.190,28.5626,53.3127
13:55:20.209,25.3751,48.0002
13:55:20.225,23.2501,43.7502
13:55:20.240,19.4376,36.3751
13:55:20.275,17.1251,31.0001
13:55:20.276,13.3126,24.4376
13:55:20.302,9.375,18.7501
13:55:20.305,5.875,12.6875
13:55:20.375,3.375,5.875
13:55:20.380,-0.5,0.8125
13:55:20.380,-3.375,-5.1875
13:55:20.380,-6.125,-10.9375
13:55:20.380,-9.125,-15.8751
13:55:20.381,-11.6875,-21.5626
13:55:20.386,-14.7501,-26.4376
13:55:20.413,-16.8126,-31.1251
13:55:20.413,-18.5626,-35.8751
13:55:20.413,-20.5626,-39.3127
13:55:20.417,-21.9376,-43.3127
13:55:20.418,-23.8126,-46.5002
13:55:20.426,-26.0001,-50.6877
13:55:20.426,-28.1251,-53.6877
13:55:20.439,-29.8126,-58.4377
13:55:20.445,-32.1876,-62.5002
13:55:20.456,-33.9376,-66.8128
13:55:20.465,-36.0626,-71.0003
13:55:20.474,-38.3751,-74.5003
13:55:20.484,-40.8752,-78.9378
13:55:20.495,-42.7502,-82.8128
13:55:20.506,-22.6876,-62.0002
13:55:20.517,-8.4375,-39.5627
13:55:20.526,5.75,-18.1876
13:55:20.534,17.8751,3.1875
13:55:20.546,29.2501,22.2501
13:55:20.555,38.6251,39.2502
13:55:20.565,44.8127,54.1877
13:55:20.575,49.3127,64.3127
13:55:20.584,52.2502,71.8753
13:55:20.598,54.2502,75.2503
13:55:20.608,55.1252,77.8753
13:55:20.615,53.5627,77.3753
13:55:20.625,52.3127,75.6253
13:55:20.636,49.1877,72.1253
13:55:20.645,47.1252,68.3753
13:55:20.655,44.4377,64.2502
13:55:20.666,41.6877,60.3752
13:55:20.675,38.5001,55.3752
13:55:20.685,35.4376,50.9377
13:55:20.696,33.1251,45.5002
13:55:20.705,28.3751,40.5002
13:55:20.716,24.8751,34.4376
13:55:20.724,21.6876,27.6251
13:55:20.735,18.1251,22.1876
13:55:20.745,16.5001,16.8751
13:55:20.754,14.2501,14.3126
13:55:20.766,12.5,10.875
13:55:20.776,11.875,7.6875
13:55:20.786,10.9375,6.1875
13:55:20.795,9.5625,4
13:55:20.806,8.375,1.0625
13:55:20.816,7.0625,-1.8125
13:55:20.826,5,-4.0625
13:55:20.836,3.6875,-5.9375
13:55:20.846,3.625,-7.375
13:55:20.856,1.625,-9.6875
13:55:20.866,-0.1875,-12.625
13:55:20.876,-1.875,-15.5001
13:55:20.885,-2.9375,-18.1251
13:55:20.916,-4.75,-21.0626
13:55:20.919,-5,-23.9376
13:55:20.921,-6.625,-27.3751
13:55:20.928,-8.8125,-31.0626
13:55:20.939,-10.875,-35.1251
13:55:20.968,-13.6251,-40.2502
13:55:20.971,-17.4376,-46.1877
13:55:20.974,-22.4376,-53.0002
13:55:20.977,-26.0001,-59.1252
13:55:21.012,-29.7501,-64.3127
13:55:21.015,-32.7501,-71.1878
13:55:21.015,-36.5626,-74.9378
13:55:21.021,-39.6877,-82.3753
13:55:21.036,-42.6877,-86.9378
13:55:21.038,-45.9377,-93.5004
13:55:21.067,-48.3752,-98.9379
13:55:21.070,-51.3752,-103.4379
13:55:21.072,-55.3752,-110.6879
13:55:21.078,-59.5002,-116.1254
13:55:21.101,-63.8752,-123.0005
13:55:21.102,-66.7503,-127.438
13:55:21.106,-70.0003,-132.188
13:55:21.116,-72.8753,-136.063
13:55:21.126,-74.9378,-140.7505
13:55:21.135,-76.6878,-143.3755
13:55:21.146,-78.8753,-145.688
13:55:21.156,-80.0628,-149.5006
13:55:21.166,-81.6253,-151.0006
13:55:21.176,-82.6253,-154.8756
13:55:21.186,-83.3128,-157.1256
13:55:21.196,-84.9378,-159.4381
13:55:21.206,-86.3128,-162.7506
13:55:21.216,-86.4378,-163.6881
13:55:21.226,-85.6878,-164.7506
13:55:21.235,-81.1253,-159.3756
13:55:21.246,-71.6878,-148.8131
13:55:21.256,-59.2502,-131.3755
13:55:21.266,-47.0002,-114.0004
13:55:21.276,-35.8126,-96.3754
13:55:21.285,-26.1876,-80.8128
13:55:21.296,-19.3126,-67.1253
13:55:21.306,-14.4376,-58.0627
13:55:21.316,-11.375,-50.1877
13:55:21.327,-9.375,-44.9377
13:55:21.336,-8.3125,-40.8752
13:55:21.345,-8.5625,-39.0001
13:55:21.356,-8.5625,-39.7502
13:55:21.366,-10.375,-39.5627
13:55:21.376,-12.3125,-42.0002
13:55:21.386,-14.0626,-44.9377
13:55:21.396,-16.3751,-46.6877
13:55:21.406,-18.1251,-49.8752
13:55:21.417,-19.8126,-51.5627
13:55:21.426,-21.8126,-53.3127
13:55:21.436,-23.1876,-56.6252
13:55:21.446,-24.4376,-59.3752
13:55:21.456,-27.1876,-62.6877
13:55:21.466,-29.6876,-66.2503
13:55:21.475,-31.0626,-69.4378
13:55:21.486,-34.1876,-72.3753
13:55:21.507,-35.6876,-76.6878
13:55:21.514,-36.0626,-78.1878
13:55:21.517,-37.4376,-80.3128
13:55:21.533,-37.2501,-81.6878
13:55:21.547,-36.2501,-80.4378
13:55:21.550,-36.6251,-82.5628
13:55:21.556,-36.4376,-81.8128
13:55:21.566,-36.8751,-81.0003
13:55:21.576,-36.4376,-83.2503
13:55:21.586,-36.5001,-82.5003
13:55:21.596,-37.2501,-84.2503
13:55:21.616,-37.4376,-85.0628
13:55:21.618,-39.1877,-86.7503
13:55:21.627,-40.6252,-90.0003
13:55:21.642,-41.2502,-91.1879
13:55:21.648,-44.0627,-93.4379
13:55:21.657,-44.8752,-97.0629
13:55:21.666,-46.7502,-100.2504
13:55:21.676,-48.3127,-104.5629
13:55:21.686,-51.4377,-107.3129
13:55:21.696,-52.8752,-111.5629
13:55:21.707,-54.7502,-114.6879
13:55:21.722,-56.7502,-118.938
13:55:21.726,-58.1252,-121.2505
13:55:21.755,-60.6252,-125.3755
13:55:21.756,-62.8127,-128.938
13:55:21.758,-64.6877,-131.063
13:55:21.789,-66.0628,-134.5005
13:55:21.791,-66.5628,-135.8755
13:55:21.794,-68.5628,-139.6255
13:55:21.796,-69.6253,-142.1255
13:55:21.829,-70.9378,-143.6255
13:55:21.830,-72.0003,-145.563
13:55:21.833,-72.9378,-148.3131
13:55:21.859,-73.9378,-149.8756
13:55:21.860,-74.6878,-150.4381
13:55:21.863,-74.9378,-152.5006
13:55:21.868,-75.6253,-153.3131
13:55:21.895,-75.8753,-155.1881
13:55:21.898,-75.1878,-155.3131
13:55:21.900,-76.7503,-156.3756
13:55:21.911,-76.5003,-157.9381
13:55:21.918,-77.1253,-158.7506
13:55:21.927,-77.6878,-160.0631
13:55:21.936,-78.5628,-162.5006
13:55:21.946,-79.6253,-162.6256
13:55:21.961,-80.3753,-164.8131
13:55:21.971,-79.8128,-165.5006
13:55:21.981,-79.2503,-164.1256
13:55:21.992,-73.9378,-159.9381
13:55:22.001,-66.8128,-149.5631
13:55:22.012,-56.6252,-137.8755
13:55:22.021,-45.8127,-122.438
13:55:22.031,-36.6876,-106.9379
13:55:22.041,-28.6876,-96.5629
13:55:22.051,-23.0626,-85.2503
13:55:22.062,-19.1876,-78.4378
13:55:22.071,-15.6251,-73.8128
13:55:22.081,-16.6251,-71.1878
13:55:22.093,-17.0001,-71.3128
13:55:22.101,-17.7501,-70.6878
13:55:22.111,-19.9376,-72.3753
13:55:22.121,-22.1876,-75.1878
13:55:22.131,-23.2501,-76.9378
13:55:22.142,-25.0626,-77.9378
13:55:22.151,-26.3751,-80.8128
13:55:22.161,-27.1251,-81.3128
13:55:22.171,-28.3126,-82.1878
13:55:22.199,-28.6876,-83.4378
13:55:22.199,-30.1876,-83.8128
13:55:22.201,-30.4376,-85.6878
13:55:22.213,-29.6876,-85.3128
13:55:22.221,-30.6251,-86.4378
13:55:22.231,-30.8751,-87.5628
13:55:22.241,-31.3126,-88.1878
13:55:22.251,-30.4376,-87.9378
13:55:22.261,-30.8126,-87.5003
13:55:22.271,-30.3126,-88.5628
13:55:22.286,-29.2501,-86.8128
13:55:22.291,-28.9376,-87.2503
13:55:22.301,-27.8751,-86.3753
13:55:22.311,-29.1251,-86.6253
13:55:22.321,-28.1251,-87.1878
13:55:22.331,-29.2501,-88.5003
13:55:22.341,-28.7501,-87.7503
13:55:22.351,-29.1251,-88.3753
13:55:22.361,-29.2501,-88.5628
13:55:22.371,-30.4376,-87.9378
13:55:22.381,-31.0626,-90.7503
13:55:22.391,-33.0001,-92.3754
13:55:22.402,-34.0626,-93.8129
13:55:22.411,-35.5626,-97.1254
13:55:22.434,-37.8751,-98.7504
13:55:22.438,-39.8752,-102.3129
13:55:22.442,-40.7502,-104.2504
13:55:22.483,-42.5627,-106.5629
13:55:22.485,-43.6252,-108.8754
13:55:22.486,-45.5002,-109.1254
13:55:22.491,-46.5627,-113.0629
13:55:22.499,-47.3752,-114.3129
13:55:22.502,-49.4377,-116.3129
13:55:22.539,-50.7502,-119.563
13:55:22.541,-51.8752,-121.563
13:55:22.544,-52.8752,-123.7505
13:55:22.546,-53.1877,-124.688
13:55:22.552,-54.0002,-125.063
13:55:22.585,-54.0627,-126.6255
13:55:22.589,-54.9377,-128.188
13:55:22.593,-55.9377,-129.0005
13:55:22.604,-56.5627,-130.438
13:55:22.604,-57.1252,-130.938
13:55:22.611,-57.8127,-131.3755
13:55:22.623,-57.3752,-133.2505
13:55:22.631,-57.3127,-133.0005
13:55:22.641,-56.8752,-134.813
13:55:22.651,-58.0002,-134.0005
13:55:22.667,-57.5627,-136.438
13:55:22.673,-58.0002,-136.3755
13:55:22.681,-58.9377,-137.563
13:55:22.691,-59.4377,-137.0005
13:55:22.701,-58.6252,-138.938
13:55:22.711,-58.6877,-138.063
13:55:22.721,-57.8752,-138.438
13:55:22.731,-56.1877,-137.063
13:55:22.741,-52.8127,-132.7505
13:55:22.751,-44.9377,-125.188
13:55:22.761,-35.8751,-113.4379
13:55:22.771,-20.2501,-94.3754
13:55:22.781,-7.0625,-75.7503
13:55:22.791,5.75,-59.0002
13:55:22.803,15.9376,-42.8127
13:55:22.818,22.2501,-33.8751
13:55:22.832,31.9376,-20.3751
13:55:22.834,37.5626,-12.3125
13:55:22.844,44.3127,-2.5625
13:55:22.851,49.5627,4.375
13:55:22.862,55.0002,11.0625
13:55:22.871,58.8752,15.8751
13:55:22.881,62.8752,20.0001
13:55:22.891,64.6877,24.0626
13:55:22.902,66.2503,23.6876
13:55:22.911,66.7503,26.2501
13:55:22.927,66.4378,24.4376
13:55:22.943,65.2503,24.7501
13:55:22.943,63.8127,22.4376
13:55:22.959,62.9377,21.0626
13:55:22.963,59.1877,17.3126
13:55:22.971,55.1877,12.625
13:55:22.981,49.6877,6.3125
13:55:22.991,44.3752,1.125
13:55:23.002,40.6877,-3.8125
13:55:23.011,38.1251,-8.25
13:55:23.021,34.7501,-11.8125
13:55:23.032,29.8751,-16.7501
13:55:23.046,25.0001,-21.3126
13:55:23.052,20.8751,-26.3126
13:55:23.061,17.5626,-30.7501
13:55:23.071,12,-35.4376
13:55:23.081,8.3125,-39.8752
13:55:23.091,4.5,-44.4377
13:55:23.101,2.125,-46.2502
13:55:23.111,0.25,-48.3127
13:55:23.121,0.25,-49.2502
13:55:23.131,0.25,-49.0627
13:55:23.141,0.625,-48.2502
13:55:23.152,1.125,-48.4377
13:55:23.190,0.4375,-48.6877
13:55:23.193,2.0625,-49.0002
13:55:23.195,0.5,-49.7502
13:55:23.199,0.8125,-51.0002
13:55:23.206,-1.875,-53.5002
13:55:23.235,-3.9375,-55.5002
13:55:23.237,-5.9375,-58.7502
13:55:23.241,-7.3125,-61.1877
13:55:23.247,-9.6875,-63.1252
13:55:23.258,-11.25,-65.3127
13:55:23.261,-13.3751,-68.1878
13:55:23.293,-14.9376,-70.5003
13:55:23.294,-17.0626,-73.5003
13:55:23.295,-18.9376,-76.1253
13:55:23.302,-20.8751,-78.3753
13:55:23.327,-21.9376,-80.5003
13:55:23.331,-24.5001,-82.5003
13:55:23.333,-26.1876,-85.6253
13:55:23.342,-29.0001,-88.9378
13:55:23.351,-31.1876,-91.2504
13:55:23.361,-32.3751,-93.0629
13:55:23.371,-32.2501,-94.4379
13:55:23.381,-33.3751,-94.8754
13:55:23.391,-32.6876,-94.7504
13:55:23.402,-33.8751,-96.0004
13:55:23.411,-34.6251,-96.7504
13:55:23.422,-36.0001,-97.7504
13:55:23.431,-36.9376,-100.1254
13:55:23.442,-37.8126,-100.9379
13:55:23.451,-38.5626,-100.2504
13:55:23.476,-39.0002,-103.0629
13:55:23.478,-40.7502,-104.9379
13:55:23.482,-42.9377,-107.5004
13:55:23.493,-45.5627,-110.0004
13:55:23.501,-48.1877,-113.5629
13:55:23.511,-49.1252,-115.8129
13:55:23.522,-48.2502,-114.2504
13:55:23.531,-45.0627,-111.0004
13:55:23.541,-39.2501,-104.3129
13:55:23.551,-33.1251,-93.6254
13:55:23.561,-27.4376,-85.6253
13:55:23.572,-20.9376,-77.0003
13:55:23.581,-18.4376,-70.1878
13:55:23.592,-14.9376,-66.3753
13:55:23.601,-14.6251,-63.7502
13:55:23.611,-14.4376,-64.0627
13:55:23.623,-15.1876,-64.9377
13:55:23.631,-17.2501,-66.3753
13:55:23.641,-18.6876,-68.7503
13:55:23.651,-20.4376,-69.5628
13:55:23.663,-21.9376,-72.5628
13:55:23.671,-22.9376,-75.4378
13:55:23.681,-26.3751,-78.4378
13:55:23.691,-24.8126,-78.5628
13:55:23.701,-27.5001,-79.5003
13:55:23.712,-29.7501,-83.2503
13:55:23.721,-29.6251,-83.9378
13:55:23.733,-30.7501,-83.5003
13:55:23.742,-30.8126,-85.2503
13:55:23.751,-30.7501,-85.3753
13:55:23.762,-31.1876,-86.5003
13:55:23.773,-30.5001,-86.8128
13:55:23.781,-30.7501,-86.9378
13:55:23.797,-30.0001,-87.1253
13:55:23.803,-30.6876,-87.0628
13:55:23.811,-28.9376,-86.8753
13:55:23.822,-29.6251,-85.6253
13:55:23.831,-27.9376,-86.1878
13:55:23.841,-27.3751,-84.4378
13:55:23.851,-26.5001,-83.0628
13:55:23.884,-25.6876,-82.8128
13:55:23.886,-25.7501,-81.5628
13:55:23.888,-24.9376,-82.3753
13:55:23.893,-25.1876,-81.7503
13:55:23.925,-26.0626,-82.6878
13:55:23.927,-26.5001,-84.1253
13:55:23.930,-27.6876,-85.3128
13:55:23.932,-29.6876,-86.0628
13:55:23.961,-30.6876,-89.0003
13:55:23.963,-32.4376,-89.3128
13:55:23.966,-33.5626,-92.1879
13:55:23.999,-34.0001,-93.1879
13:55:24.001,-35.6251,-94.2504
13:55:24.004,-35.0001,-95.0629
13:55:24.009,-35.5626,-95.6254
13:55:24.016,-36.1876,-97.6254
13:55:24.036,-37.3126,-99.0004
13:55:24.038,-40.1252,-99.9379
13:55:24.041,-41.3752,-102.5004
13:55:24.051,-42.1877,-103.4379
13:55:24.062,-44.6252,-105.7504
13:55:24.071,-46.3752,-109.0004
13:55:24.082,-47.0002,-109.6254
13:55:24.091,-43.6877,-107.7504
13:55:24.101,-42.8752,-106.1879
13:55:24.112,-42.2502,-104.7504
13:55:24.127,-41.5627,-105.9379
13:55:24.135,-40.8752,-105.5004
13:55:24.142,-43.5627,-106.6254
13:55:24.157,-43.0627,-108.0004
13:55:24.176,-44.9377,-108.0004
13:55:24.178,-46.0002,-110.1879
13:55:24.182,-46.4377,-110.8129
13:55:24.192,-47.3127,-109.3129
13:55:24.203,-45.5002,-109.1879
13:55:24.212,-44.2502,-107.5629
13:55:24.221,-43.1877,-106.3754
13:55:24.236,-41.4377,-105.1879
13:55:24.244,-41.6252,-105.0004
13:55:24.252,-41.1877,-105.6879
13:55:24.267,-41.4377,-104.7504
13:55:24.276,-42.0627,-106.1879
13:55:24.283,-42.1252,-105.6879
13:55:24.291,-42.6252,-105.8754
13:55:24.302,-42.1877,-106.4379
13:55:24.312,-42.4377,-106.3129
13:55:24.322,-41.6252,-106.9379
13:55:24.331,-38.6251,-102.6254
13:55:24.342,-35.0001,-98.5629
13:55:24.353,-29.5626,-91.2504
13:55:24.362,-23.5626,-82.1253
13:55:24.373,-16.4376,-73.1253
13:55:24.382,-11.25,-64.1252
13:55:24.391,-7.625,-58.3752
13:55:24.402,-5.0625,-53.5002
13:55:24.412,-3.9375,-50.0627
13:55:24.422,-4.375,-50.7502
13:55:24.432,-5,-49.3752
13:55:24.442,-4.9375,-52.5002
13:55:24.453,-5.9375,-52.2502
13:55:24.463,-7.125,-53.6877
13:55:24.472,-8.1875,-55.6877
13:55:24.482,-9.6875,-57.3752
13:55:24.493,-9.75,-58.7502
13:55:24.502,-11.4375,-60.0002
13:55:24.512,-11.9375,-61.5002
13:55:24.522,-11.9375,-61.3752
13:55:24.532,-13.3751,-61.5627
13:55:24.543,-13.6251,-63.1877
13:55:24.551,-13.2501,-63.6877
13:55:24.563,-14.2501,-63.8127
13:55:24.572,-15.1876,-66.1253
13:55:24.582,-15.7501,-66.5628
13:55:24.593,-16.6251,-66.2503
13:55:24.602,-16.5001,-67.8128
13:55:24.613,-16.0626,-67.7503
13:55:24.622,-17.2501,-68.2503
13:55:24.632,-16.5626,-68.1253
13:55:24.642,-15.7501,-66.1878
13:55:24.674,-14.9376,-65.3128
13:55:24.676,-13.7501,-64.9377
13:55:24.679,-14.3751,-63.5627
13:55:24.682,-14.9376,-65.3752
13:55:24.712,-15.5626,-65.8128
13:55:24.715,-15.9376,-65.3128
13:55:24.717,-16.5001,-67.3128
13:55:24.723,-16.6876,-67.5628
13:55:24.757,-18.5001,-67.8128
13:55:24.760,-18.3126,-69.0003
13:55:24.761,-18.1251,-69.5003
13:55:24.797,-19.2501,-70.6253
13:55:24.797,-19.8751,-72.0003
13:55:24.799,-20.9376,-72.3128
13:55:24.806,-22.0001,-74.6253
13:55:24.807,-22.6876,-75.8128
13:55:24.821,-24.0001,-76.0003
13:55:24.824,-23.5001,-77.2503
13:55:24.836,-24.8751,-76.5003
13:55:24.842,-24.9376,-79.2503
13:55:24.854,-25.2501,-79.0628
13:55:24.862,-26.2501,-80.6253
13:55:24.873,-26.9376,-81.1253
13:55:24.882,-26.8126,-81.4378
13:55:24.892,-27.5626,-80.0003
13:55:24.902,-28.0001,-82.4378
13:55:24.913,-28.6876,-82.0628
13:55:24.923,-28.4376,-83.0628
13:55:24.933,-28.6876,-82.2503
13:55:24.942,-28.6251,-83.6878
13:55:24.952,-29.7501,-82.8128
13:55:24.962,-29.3751,-83.8753
13:55:24.973,-30.1251,-83.6253
13:55:24.982,-31.0626,-83.5628
13:55:24.992,-31.0001,-83.6253
13:55:25.002,-30.5001,-82.0003
13:55:25.012,-29.4376,-81.8128
13:55:25.023,-27.5626,-79.4378
13:55:25.033,-27.0001,-77.3128
13:55:25.042,-25.4376,-76.5628
13:55:25.052,-24.1251,-75.1253
13:55:25.062,-25.0626,-74.3128
13:55:25.073,-23.5626,-73.6253
13:55:25.082,-22.5001,-71.3753
13:55:25.093,-20.8751,-70.8128
13:55:25.102,-18.8751,-67.3128
13:55:25.112,-16.6876,-66.6878
13:55:25.122,-14.3751,-65.0627
13:55:25.133,-11.6875,-61.7502
13:55:25.142,-11.1875,-60.2502
13:55:25.152,-9.5625,-59.3127
13:55:25.162,-8.3125,-57.3127
13:55:25.172,-7.9375,-58.0002
13:55:25.183,-5.6875,-55.3752
13:55:25.192,-3.4375,-50.6252
13:55:25.202,1.375,-45.5002
13:55:25.213,6,-36.2501
13:55:25.222,12,-28.6876
13:55:25.232,17.2501,-19.9376
13:55:25.242,19.9376,-12.9375
13:55:25.253,21.5626,-9.8125
13:55:25.262,22.2501,-8.1875
13:55:25.273,20.1876,-8.0625
13:55:25.282,19.2501,-8.9375
13:55:25.292,17.9376,-8.5
13:55:25.301,17.1251,-10.6875
13:55:25.312,14.8751,-11.8125
13:55:25.322,12.8125,-15.1251
13:55:25.332,11.0625,-16.5626
13:55:25.342,6.6875,-19.2501
13:55:25.375,3.375,-23.8126
13:55:25.377,1,-25.0626
13:55:25.379,1,-27.0001
13:55:25.382,0.625,-28.0001
13:55:25.414,2.6875,-26.0626
13:55:25.415,3.4375,-26.3126
13:55:25.417,3.9375,-26.0626
13:55:25.423,2.25,-29.0001
13:55:25.466,-1.5625,-31.8751
13:55:25.510,-5.1875,-34.8751
13:55:25.512,-7.3125,-38.0626
13:55:25.538,-8.625,-40.5627
13:55:25.541,-10.25,-42.4377
13:55:25.541,-3.5625,-36.2501
13:55:25.541,-7.6875,-40.1877
13:55:25.546,-5.0625,-40.5627
13:55:25.548,-2.1875,-36.4376
13:55:25.564,-0.125,-34.6251
13:55:25.565,3.8125,-32.1251
13:55:25.581,7.5625,-29.8751
13:55:25.597,11.625,-25.2501
13:55:25.597,14.6876,-23.5001
13:55:25.613,17.1876,-22.1251
13:55:25.615,19.5626,-20.0001
13:55:25.622,21.5626,-18.1251
13:55:25.632,23.5001,-15.9376
13:55:25.642,22.1251,-16.7501
13:55:25.652,21.8126,-16.5626
13:55:25.662,21.2501,-17.8126
13:55:25.677,19.8751,-20.0626
13:55:25.683,31.2501,-17.4376
13:55:25.693,36.6251,-13.7501
13:55:25.702,38.6251,-12.3125
13:55:25.712,31.1251,-18.4376
13:55:25.722,26.6251,-23.8751
13:55:25.732,28.5626,-22.0001
13:55:25.742,32.9376,-19.4376
13:55:25.752,34.6876,-18.0001
13:55:25.762,36.0626,-16.5001
13:55:25.772,36.4376,-16.5626
13:55:25.782,36.3126,-17.6251
13:55:25.792,33.6251,-19.3126
13:55:25.803,34.3751,-18.6876
13:55:25.812,35.8126,-18.3751
13:55:25.823,36.6876,-18.2501
13:55:25.832,36.5626,-17.7501
13:55:25.842,37.6251,-17.9376
13:55:25.852,38.9376,-17.5001
13:55:25.862,39.1252,-16.4376
13:55:25.872,38.5001,-17.9376
13:55:25.882,39.0001,-17.6876
13:55:25.892,37.2501,-19.6251
13:55:25.902,37.4376,-18.8751
13:55:25.912,36.6876,-19.1876
13:55:25.922,35.1876,-21.1876
13:55:25.932,31.5001,-24.9376
13:55:25.942,29.9376,-26.2501
13:55:25.952,29.2501,-27.8126
13:55:25.962,29.9376,-26.9376
13:55:25.972,27.8126,-28.1251
13:55:25.982,27.6251,-28.5626
13:55:25.997,26.6876,-30.1876
13:55:26.007,26.4376,-30.2501
13:55:26.036,25.0626,-30.5001
13:55:26.038,24.6251,-32.5626
13:55:26.040,24.5001,-34.0001
13:55:26.069,24.6876,-33.3126
13:55:26.071,25.4376,-32.0626
13:55:26.096,26.0626,-30.4376
13:55:26.098,27.8126,-25.8751
13:55:26.099,31.2501,-22.5001
13:55:26.102,35.8126,-15.8126
13:55:26.107,40.0002,-6.75
13:55:26.117,44.6877,-0.0625
13:55:26.150,46.1877,4.875
13:55:26.152,47.1252,8.25
13:55:26.155,47.4377,9.625
13:55:26.158,47.0002,9.6875
13:55:26.190,44.6252,8
13:55:26.192,43.3752,6.4375
13:55:26.195,41.3127,4.25
13:55:26.200,38.6876,2
13:55:26.223,35.8751,0
13:55:26.226,34.3126,-2.875
13:55:26.228,32.7501,-5.0625
13:55:26.238,31.3751,-6.4375
13:55:26.247,30.7501,-5.875
13:55:26.257,30.9376,-7
13:55:26.267,29.5001,-8
13:55:26.277,28.5626,-8.3125
13:55:26.287,27.3751,-8.75
13:55:26.297,27.0001,-9.375
13:55:26.307,27.0001,-9.125
13:55:26.317,27.7501,-9.6875
13:55:26.327,27.0001,-10.625
13:55:26.337,28.0626,-9.5
13:55:26.347,28.0001,-8.875
13:55:26.357,28.1876,-8.1875
13:55:26.367,28.5626,-8.25
13:55:26.378,27.4376,-9.3125
13:55:26.387,26.1251,-8.875
13:55:26.397,26.5001,-8.8125
13:55:26.407,25.6876,-9.75
13:55:26.417,24.6251,-10.9375
13:55:26.428,24.5001,-10.9375
13:55:26.438,23.4376,-11.625
13:55:26.448,22.6876,-11.75
13:55:26.457,23.1251,-11.125
13:55:26.467,23.0001,-12.0625
13:55:26.477,22.6876,-11.6875
13:55:26.487,22.5626,-12.4375
13:55:26.497,21.8126,-13.6876
13:55:26.507,20.8126,-14.4376
13:55:26.518,20.1876,-15.6876
13:55:26.527,18.6876,-16.3126
13:55:26.537,16.5001,-18.1876
13:55:26.547,16.2501,-19.2501
13:55:26.558,15.0001,-21.5626
13:55:26.567,13.5001,-22.3126
13:55:26.577,12.5625,-22.9376
13:55:26.587,11.9375,-25.0001
13:55:26.600,10.625,-26.7501
13:55:26.609,9.9375,-27.0626
13:55:26.617,10.25,-27.0001
13:55:26.627,9.375,-27.3126
13:55:26.637,9.6875,-26.4376
13:55:26.647,10.6875,-26.9376
13:55:26.657,10,-26.2501
13:55:26.667,9.625,-27.1876
13:55:26.677,9.3125,-28.6876
13:55:26.687,8.3125,-28.6876
13:55:26.697,7.6875,-29.8126
13:55:26.707,6.6875,-29.8751
13:55:26.717,6.3125,-30.7501
13:55:26.728,5.5625,-31.1251
13:55:26.737,4.625,-31.8751
13:55:26.747,4.0625,-33.0001
13:55:26.757,3.5,-34.4376
13:55:26.767,3.375,-33.3751
13:55:26.777,2.625,-35.1251
13:55:26.795,2.125,-34.7501
13:55:26.801,2.375,-35.3751
13:55:26.830,2,-35.5626
13:55:26.832,2.6875,-36.1251
13:55:26.863,3.1875,-35.8126
13:55:26.863,1.75,-35.5626
13:55:26.866,1,-37.1251
13:55:26.866,1.1875,-38.5001
13:55:26.897,1.25,-37.2501
13:55:26.931,1.125,-38.9376
13:55:26.962,1.375,-38.1251
13:55:26.966,2.8125,-37.8126
13:55:26.966,2.25,-38.6876
13:55:26.968,1.875,-37.8751
13:55:26.975,2.625,-37.1251
13:55:26.975,4.5,-35.0626
13:55:26.975,8.0625,-29.3126
13:55:26.988,12.875,-23.6251
13:55:26.994,17.5626,-15.6876
13:55:27.002,23.0001,-7.75
13:55:27.012,26.5626,-0.4375
13:55:27.022,30.2501,4.75
13:55:27.033,31.7501,8.5
13:55:27.042,31.1876,9.375
13:55:27.052,30.7501,8.9375
13:55:27.062,29.0626,8.6875
13:55:27.073,27.9376,8.25
13:55:27.082,26.8751,6.3125
13:55:27.093,25.6251,4.625
13:55:27.102,24.4376,2.5625
13:55:27.112,23.1251,2.0625
13:55:27.123,21.5001,-0.125
13:55:27.133,19.8126,-1.9375
13:55:27.142,20.0626,-4.0625
13:55:27.152,19.5001,-3.375
13:55:27.162,20.4376,-3.4375
13:55:27.173,19.4376,-4.9375
13:55:27.182,18.1251,-4.6875
13:55:27.192,18.4376,-5.0625
13:55:27.203,18.0626,-6.875
13:55:27.212,17.5001,-6.75
13:55:27.223,17.5626,-5.8125
13:55:27.232,18.0626,-6.75
13:55:27.242,18.0001,-6.1875
13:55:27.253,18.2501,-5.5
13:55:27.262,19.2501,-5.4375
13:55:27.273,19.0001,-5.4375
13:55:27.282,17.8751,-4.375
13:55:27.315,18.6876,-4.75
13:55:27.318,18.6251,-5.3125
13:55:27.320,18.5001,-5
13:55:27.324,17.6251,-6.4375
13:55:27.332,17.3126,-5.9375
13:55:27.344,16.2501,-8.0625
13:55:27.354,15.5001,-8.4375
13:55:27.363,15.4376,-8.4375
13:55:27.373,15.6876,-10.125
13:55:27.382,14.3751,-9.4375
13:55:27.392,14.5626,-11.25
13:55:27.403,12.9375,-12.0625
13:55:27.413,12.8125,-13.125
13:55:27.422,11.6875,-15.0626
13:55:27.434,11.1875,-15.6251
13:55:27.442,10.5625,-16.1876
13:55:27.452,9.4375,-18.3751
13:55:27.464,8.5625,-17.8751
13:55:27.473,8.3125,-19.8126
13:55:27.482,6.875,-20.8751
13:55:27.494,6,-22.1251
13:55:27.502,4.5625,-23.1876
13:55:27.512,4.5625,-24.0001
13:55:27.522,4.3125,-25.6251
13:55:27.532,4.375,-25.1251
13:55:27.544,4.6875,-25.7501
13:55:27.581,3.75,-26.4376
13:55:27.584,2.875,-25.6251
13:55:27.586,2.625,-27.5626
13:55:27.588,2.625,-29.0626
13:55:27.595,2.6875,-27.7501
13:55:27.630,2.25,-28.7501
13:55:27.633,2.375,-28.3751
13:55:27.635,2.6875,-27.7501
13:55:27.641,2.8125,-28.2501
13:55:27.646,2.6875,-29.4376
13:55:27.678,2.9375,-29.8126
13:55:27.681,2.6875,-29.8126
13:55:27.683,2.1875,-29.6876
13:55:27.686,2,-30.0626
13:55:27.693,2.125,-31.5001
13:55:27.722,1.375,-29.2501
13:55:27.725,2.0625,-31.4376
13:55:27.727,1,-33.2501
13:55:27.733,1.3125,-32.4376
13:55:27.742,1.5,-33.1251
13:55:27.757,0.625,-33.2501
13:55:27.765,0.4375,-33.0001
13:55:27.772,1.1875,-33.9376
13:55:27.783,1.1875,-32.7501
13:55:27.793,3.125,-29.2501
13:55:27.803,6.4375,-24.9376
13:55:27.814,10.5,-17.3126
13:55:27.823,15.6876,-10.3125
13:55:27.835,19.5626,-3.25
13:55:27.843,22.0626,4.5625
13:55:27.853,25.2501,7.6875
13:55:27.863,24.7501,9.5625
13:55:27.873,25.3751,11.9375
13:55:27.882,25.0001,10.75
13:55:27.892,22.9376,10.5
13:55:27.903,21.8126,8.6875
13:55:27.914,19.1876,6.5625
13:55:27.923,17.6876,5.3125
13:55:27.934,16.8126,2.9375
13:55:27.943,14.8126,1.875
13:55:27.953,14.2501,0.375
13:55:27.963,13.4376,-1.375
13:55:27.973,13.125,-1.375
13:55:27.983,12.875,-2.3125
13:55:27.993,11.375,-3.5
13:55:28.004,11.125,-3.375
13:55:28.013,12.1875,-3.1875
13:55:28.024,11.1875,-4.375
13:55:28.033,11.375,-3.875
13:55:28.043,11.6875,-4.75
13:55:28.054,12,-4.9375
13:55:28.064,11.9375,-5.375
13:55:28.073,12.625,-3.4375
13:55:28.083,12.9375,-3.875
13:55:28.093,13.125,-3.3125
13:55:28.115,13.2501,-1.9375
13:55:28.117,14.1251,-1.75
13:55:28.151,13.1876,-2.9375
13:55:28.152,12.5,-2.625
13:55:28.154,13.5001,-3
13:55:28.157,14.4376,-1
13:55:28.164,15.1876,-1.1875
13:55:28.174,14.9376,-0.25
13:55:28.184,14.9376,0.3125
13:55:28.193,15.6876,-0.5
13:55:28.214,15.4376,0.0625
13:55:28.217,14.6251,-2.625
13:55:28.231,13.9376,-2.8125
13:55:28.246,14.0001,-3.0625
13:55:28.248,13.6876,-4.6875
13:55:28.255,13.7501,-4.5
13:55:28.263,14.2501,-4.375
13:55:28.273,13.4376,-6.0625
13:55:28.283,12.4375,-6.875
13:55:28.293,12.0625,-7.125
13:55:28.304,12.3125,-8.625
13:55:28.314,10.5,-9.75
13:55:28.335,9.875,-10.5
13:55:28.339,9.9375,-11.625
13:55:28.343,8.9375,-11.375
13:55:28.371,10,-12.875
13:55:28.374,9.6875,-12.1875
13:55:28.376,10,-12.375
13:55:28.406,9.9375,-13.0625
13:55:28.408,9.4375,-13.6876
13:55:28.411,9.5,-13.7501
13:55:28.414,9.4375,-14.0626
13:55:28.453,8.5625,-15.8751
13:55:28.455,8.875,-15.5001
13:55:28.456,8.9375,-16.0001
13:55:28.462,8.5,-15.3126
13:55:28.463,8.0625,-15.9376
13:55:28.500,8.625,-16.4376
13:55:28.502,7.8125,-16.8126
13:55:28.505,7.5625,-18.3751
13:55:28.508,6.375,-19.3126
13:55:28.519,5.4375,-19.8126
13:55:28.524,5.3125,-21.0626
13:55:28.533,4.8125,-22.1251
13:55:28.543,3.5,-22.0001
13:55:28.553,3.5,-23.1876
13:55:28.563,3.375,-24.5626
13:55:28.596,2.25,-24.8126
13:55:28.597,2.6875,-26.3126
13:55:28.600,1.375,-26.5626
13:55:28.605,0.5625,-26.1876
13:55:28.615,1.5,-26.3126
13:55:28.624,4.125,-24.4376
13:55:28.633,8.0625,-18.0626
13:55:28.644,12.4375,-11.6875
13:55:28.654,17.7501,-3.4375
13:55:28.663,23.2501,5.5625
13:55:28.674,27.5626,12.75
13:55:28.683,30.2501,18.8751
13:55:28.693,31.1251,23.1876
13:55:28.703,32.0626,25.6876
13:55:28.713,32.7501,27.3126
13:55:28.723,32.3751,26.6876
13:55:28.733,31.6876,27.2501
13:55:28.743,31.0626,25.8751
13:55:28.754,29.2501,24.4376
13:55:28.763,28.1251,24.5626
13:55:28.774,27.0001,22.1251
13:55:28.783,25.7501,20.1251
13:55:28.794,24.5626,19.2501
13:55:28.803,24.1251,18.0001
13:55:28.813,23.2501,18.2501
13:55:28.823,23.1251,18.2501
13:55:28.833,23.0001,16.4376
13:55:28.844,22.2501,15.9376
13:55:28.853,22.0626,15.7501
13:55:28.863,21.9376,16.5001
13:55:28.873,22.0626,15.3126
13:55:28.884,21.9376,13.6876
13:55:28.899,22.0001,15.0001
13:55:28.903,23.0001,15.1876
13:55:28.913,23.1876,14.8751
13:55:28.923,23.2501,15.3126
13:55:28.933,23.5001,15.8751
13:55:28.944,23.8126,17.5626
13:55:28.953,25.7501,18.0626
13:55:28.965,26.4376,19.2501
13:55:28.973,26.8126,19.5001
13:55:28.983,26.1251,20.9376
13:55:28.993,27.0626,20.7501
13:55:29.003,27.8126,20.3126
13:55:29.014,27.2501,19.8126
13:55:29.023,27.0001,20.8751
13:55:29.033,27.5626,20.1251
13:55:29.078,27.0626,19.1251
13:55:29.080,26.1876,19.4376
13:55:29.084,25.5001,17.5626
13:55:29.085,25.2501,16.6876
13:55:29.091,24.6876,14.6876
13:55:29.117,24.7501,14.4376
13:55:29.120,24.0001,14.9376
13:55:29.121,24.4376,13.7501
13:55:29.126,23.7501,11.9375
13:55:29.154,22.9376,10.875
13:55:29.156,22.1251,10.5625
13:55:29.158,21.8751,9.1875
13:55:29.164,21.6251,7
13:55:29.206,21.3126,6.5625
13:55:29.207,21.3126,7.625
13:55:29.210,22.2501,7.0625
13:55:29.212,21.9376,6
13:55:29.217,20.8751,4.5
13:55:29.224,19.3751,3.125
13:55:29.233,19.0001,2.5625
13:55:29.244,18.5001,2.875
13:55:29.254,19.2501,1.375
13:55:29.263,19.3751,1.5625
13:55:29.276,19.5001,1.875
13:55:29.283,20.6251,3.3125
13:55:29.293,21.8126,2.3125
13:55:29.303,22.1251,2.125
13:55:29.313,21.7501,2.6875
13:55:29.323,21.8126,3.125
13:55:29.334,22.4376,2.1875
13:55:29.343,22.3126,1.5625
13:55:29.353,22.1876,0.125
13:55:29.363,22.1251,0.25
13:55:29.373,22.8126,0.0625
13:55:29.383,22.8751,1.3125
13:55:29.393,23.8126,1
13:55:29.403,24.0626,0.25
13:55:29.418,24.3751,0.0625
13:55:29.434,25.1876,2.3125
13:55:29.436,27.6251,3.5
13:55:29.446,31.1251,8.3125
13:55:29.454,35.1876,14.8126
13:55:29.463,40.0627,24.0626
13:55:29.473,45.6877,32.7501
13:55:29.484,49.8752,39.3751
13:55:29.494,52.5627,45.5627
13:55:29.503,55.3127,52.4377
13:55:29.523,57.0002,56.5627
13:55:29.526,58.5627,58.5627
13:55:29.536,58.1252,59.0002
13:55:29.543,57.7502,59.5627
13:55:29.559,57.3752,58.8752
13:55:29.566,56.8127,59.2502
13:55:29.573,55.9377,58.5627
13:55:29.583,55.2502,57.2502
13:55:29.594,55.5627,56.9377
13:55:29.603,54.6877,55.3752
13:55:29.613,53.7502,54.6252
13:55:29.623,52.6877,54.0002
13:55:29.633,52.7502,53.1877
13:55:29.647,51.3127,51.8127
13:55:29.654,50.1252,50.3752
13:55:29.665,49.3127,49.5627
13:55:29.674,48.4377,48.4377
13:55:29.683,47.0002,47.1252
13:55:29.694,46.1877,44.9377
13:55:29.703,41.3127,40.6877
13:55:29.713,41.0627,39.5627
13:55:29.724,40.1252,40.6877
13:55:29.734,40.5627,39.6252
13:55:29.744,41.6252,40.3127
13:55:29.763,40.8752,40.8752
13:55:29.766,40.8127,41.0002
13:55:29.792,41.0627,41.1252
13:55:29.795,41.5627,40.9377
13:55:29.797,40.5002,39.6877
13:55:29.805,40.4377,40.1252
13:55:29.833,40.4377,40.5627
13:55:29.837,39.9377,39.5002
13:55:29.839,39.2501,38.8126
13:55:29.845,38.5626,37.6876
13:55:29.875,37.5626,35.5001
13:55:29.878,36.8751,34.8751
13:55:29.880,36.3126,35.2501
13:55:29.885,35.7501,33.2501
13:55:29.912,34.8751,31.8126
13:55:29.915,32.8751,29.1251
13:55:29.917,30.8751,27.8751
13:55:29.934,29.5626,25.0626
13:55:29.938,27.2501,22.1876
13:55:29.944,26.0001,19.6876
13:55:29.953,23.5001,18.8751
13:55:29.963,22.3751,16.2501
13:55:29.973,20.8751,13.4376
13:55:29.983,19.2501,10.5
13:55:29.993,17.3126,10.25
13:55:30.004,16.3751,8.5
13:55:30.014,15.3751,5.9375
13:55:30.028,13.7501,4.25
13:55:30.038,12.9375,4.125
13:55:30.049,14.0001,3.375
13:55:30.058,13.125,3.6875
13:55:30.069,13.0625,3.375
13:55:30.080,12.75,2.25
13:55:30.088,11.6875,0.25
13:55:30.099,10.0625,-1.1875
13:55:30.108,9.1875,-2.8125
13:55:30.118,7.625,-5.9375
13:55:30.129,4.625,-8.1875
13:55:30.138,2.25,-10.5
13:55:30.148,0.25,-13.1876
13:55:30.158,-1.625,-15.7501
13:55:30.169,-4.375,-18.3126
13:55:30.178,-4.75,-17.8751
13:55:30.188,-2.0625,-15.8126
13:55:30.198,0.125,-11
13:55:30.208,4.6875,-4.9375
13:55:30.218,8.0625,1.75
13:55:30.228,12.25,9.625
13:55:30.238,16.5001,17.8126
13:55:30.249,19.5626,23.2501
13:55:30.258,20.9376,27.9376
13:55:30.268,22.1876,33.0001
13:55:30.279,23.5626,34.0001
13:55:30.288,22.8126,34.6876
13:55:30.298,23.2501,35.7501
13:55:30.308,23.3751,35.9376
13:55:30.318,23.0001,36.3126
13:55:30.328,23.3126,36.2501
13:55:30.338,22.6876,35.8751
13:55:30.349,22.7501,35.3751
13:55:30.359,22.1251,34.9376
13:55:30.369,21.9376,35.2501
13:55:30.379,23.2501,35.3126
13:55:30.389,22.5626,35.0626
13:55:30.402,22.5001,35.0001
13:55:30.408,23.1251,34.7501
13:55:30.419,21.5626,32.7501
13:55:30.428,20.0001,32.2501
13:55:30.441,19.7501,31.0001
13:55:30.472,20.0001,30.0001
13:55:30.473,19.8751,29.0626
13:55:30.475,19.4376,30.0001
13:55:30.491,19.9376,30.5626
13:55:30.492,21.1876,31.5626
13:55:30.525,22.5001,32.3751
13:55:30.527,23.4376,33.1251
13:55:30.530,24.1876,35.4376
13:55:30.535,25.3126,35.6251
13:55:30.572,26.0626,36.1876
13:55:30.574,26.5001,37.9376
13:55:30.576,27.4376,39.2502
13:55:30.579,28.6251,38.9376
13:55:30.583,28.2501,39.3752
13:55:30.622,28.5001,39.8752
13:55:30.624,29.5001,39.1876
13:55:30.627,28.6876,37.3751
13:55:30.632,27.3751,37.6251
13:55:30.633,28.1876,36.4376
13:55:30.642,27.1251,34.9376
13:55:30.650,26.5626,35.4376
13:55:30.663,25.9376,33.8126
13:55:30.670,25.0626,31.8751
13:55:30.679,23.4376,28.6251
13:55:30.688,20.9376,26.1251
13:55:30.699,18.6876,24.4376
13:55:30.720,18.0626,22.3126
13:55:30.726,15.3751,19.7501
13:55:30.729,13.8751,17.2501
13:55:30.743,12.125,16.1251
13:55:30.752,10.4375,13
13:55:30.759,9.5,11.5
13:55:30.768,9.5,10.1875
13:55:30.779,9.25,9.125
13:55:30.789,9.3125,7.6875
13:55:30.798,8.0625,6.625
13:55:30.808,7.5625,6.4375
13:55:30.820,7.5,5.375
13:55:30.829,8.4375,4.0625
13:55:30.845,7.75,3.3125
13:55:30.859,8.125,3.5
13:55:30.862,9.125,4.4375
13:55:30.877,10.5,4.3125
13:55:30.880,11,5.375
13:55:30.891,13.9376,9.5625
13:55:30.900,17.7501,15.3126
13:55:30.909,21.8751,24.2501
13:55:30.918,26.3751,32.3126
13:55:30.929,29.8126,38.5626
13:55:30.939,33.5001,44.9377
13:55:30.949,35.5626,51.8752
13:55:30.960,37.1251,55.3752
13:55:30.968,37.0626,57.6252
13:55:30.979,37.0626,60.0002
13:55:30.990,36.6876,60.8752
13:55:31.000,35.5626,60.2502
13:55:31.008,33.9376,58.1252
13:55:31.020,31.9376,56.6252
13:55:31.029,29.5001,54.0627
13:55:31.038,27.8751,51.2502
13:55:31.050,25.6876,51.0627
13:55:31.060,25.6876,49.1877
13:55:31.069,25.3126,48.0627
13:55:31.078,24.0626,47.4377
13:55:31.088,25.0626,46.2502
13:55:31.098,24.3126,45.1877
13:55:31.109,23.8126,43.3127
13:55:31.119,22.8751,43.2502
13:55:31.130,22.9376,41.6252
13:55:31.155,22.5001,40.2502
13:55:31.157,21.5001,40.0627
13:55:31.162,22.4376,39.1251
13:55:31.174,21.7501,39.1876
13:55:31.179,21.7501,39.1876
13:55:31.188,22.8751,39.2502
13:55:31.218,23.1251,39.6252
13:55:31.220,23.0001,41.1252
13:55:31.222,23.9376,41.2502
13:55:31.228,24.1876,41.2502
13:55:31.262,23.6876,40.0627
13:55:31.264,23.6876,40.3127
13:55:31.266,22.6876,39.0001
13:55:31.268,21.5001,38.5626
13:55:31.299,20.5626,35.2501
13:55:31.301,19.0001,32.9376
13:55:31.303,17.3126,31.1251
13:55:31.310,15.9376,30.9376
13:55:31.340,15.3751,27.9376
13:55:31.344,14.5001,25.5626
13:55:31.347,12.9375,22.8751
13:55:31.350,11.875,21.1251
13:55:31.384,11.0625,18.4376
13:55:31.386,9.625,16.7501
13:55:31.389,7.5,14.4376
13:55:31.394,7.4375,12.25
13:55:31.403,5.625,9.875
13:55:31.409,4.5625,8.25
13:55:31.418,4,6.9375
13:55:31.431,4,5.0625
13:55:31.440,3,4
13:55:31.449,2.125,2.6875
13:55:31.460,2.1875,2.1875
13:55:31.470,2.6875,0.6875
13:55:31.480,2.125,0.25
13:55:31.489,2.25,-0.6875
13:55:31.499,2.1875,-1.6875
13:55:31.510,1.4375,-2.875
13:55:31.521,0.9375,-3.4375
13:55:31.531,0,-5.125
13:55:31.539,-1.0625,-7.0625
13:55:31.550,-2.375,-9.0625
13:55:31.560,-3.25,-10.3125
13:55:31.570,-3.6875,-11.6875
13:55:31.580,-4,-12.8125
13:55:31.589,-3.1875,-11.5
13:55:31.600,-1.6875,-7.1875
13:55:31.611,3.125,-1.5625
13:55:31.621,7.4375,5.5
13:55:31.629,12.1875,15.0626
13:55:31.640,17.4376,25.6251
13:55:31.649,21.8751,33.5001
13:55:31.660,24.2501,40.9377
13:55:31.670,26.5626,46.5627
13:55:31.679,27.8126,49.8752
13:55:31.689,28.0626,53.2502
13:55:31.702,28.4376,54.1252
13:55:31.710,27.1876,54.0002
13:55:31.720,25.9376,53.8127
13:55:31.729,24.9376,51.6252
13:55:31.740,24.3751,51.3752
13:55:31.749,22.5001,49.1252
13:55:31.760,21.1251,48.5002
13:55:31.770,20.9376,46.8127
13:55:31.780,20.5001,46.4377
13:55:31.791,20.0001,45.5002
13:55:31.800,18.9376,43.5627
13:55:31.810,17.0001,43.2502
13:55:31.820,16.3751,40.5002
13:55:31.830,15.1251,37.8751
13:55:31.840,14.1876,37.0626
13:55:31.850,13.8126,35.8126
13:55:31.860,13,34.4376
13:55:31.870,13.125,33.5626
13:55:31.881,12.5625,33.8126
13:55:31.891,13.9376,33.5001
13:55:31.900,13.3126,33.0626
13:55:31.911,13.125,34.4376
13:55:31.948,12.875,34.1876
13:55:31.951,13,33.5001
13:55:31.953,12.875,33.0626
13:55:31.955,11.5625,33.9376
13:55:31.961,10.9375,32.4376
13:55:31.994,10.4375,30.8126
13:55:31.997,8.9375,29.2501
13:55:31.999,6.9375,27.6251
13:55:32.004,6.8125,25.6251
13:55:32.012,5.8125,24.3126
13:55:32.049,4.6875,23.5001
13:55:32.050,4.5625,21.3751
13:55:32.052,2.6875,19.6876
13:55:32.055,0.625,16.6251
13:55:32.070,-1.25,14.6251
13:55:32.081,-1.8125,12.25
13:55:32.085,-3.0625,9.5
13:55:32.095,-4.75,7.25
13:55:32.100,-5.375,6.1875
13:55:32.110,-5.3125,5.4375
13:55:32.120,-7.25,2.5
13:55:32.129,-8.375,1.375
13:55:32.145,-9.5,-0.25
13:55:32.161,-10.5,-3.75
13:55:32.163,-11.8125,-5.1875
13:55:32.170,-12.25,-5.4375
13:55:32.179,-12.125,-6.6875
13:55:32.190,-12.5625,-8.625
13:55:32.199,-14.3751,-10.6875
13:55:32.210,-16.0626,-13.3126
13:55:32.220,-18.0001,-14.5001
13:55:32.230,-18.1876,-16.9376
13:55:32.241,-20.6876,-18.4376
13:55:32.250,-21.6876,-19.6251
13:55:32.260,-21.5626,-21.2501
13:55:32.269,-22.1251,-20.9376
13:55:32.279,-21.1251,-21.1251
13:55:32.290,-21.4376,-22.3751
13:55:32.300,-22.0001,-23.3126
13:55:32.310,-22.3751,-24.3126
13:55:32.319,-22.0001,-25.0626
13:55:32.331,-20.8126,-22.8126
13:55:32.341,-16.1876,-17.3126
13:55:32.349,-12.1875,-9.4375
13:55:32.360,-6.4375,0.25
13:55:32.369,-0.5,10.4375
13:55:32.380,5.25,21.8751
13:55:32.391,9.25,30.8126
13:55:32.400,13.1876,39.1252
13:55:32.410,15.3751,45.5002
13:55:32.436,16.3126,49.6252
13:55:32.438,16.7501,52.3752
13:55:32.441,16.6876,53.6252
13:55:32.451,15.2501,54.7502
13:55:32.461,15.1876,53.3752
13:55:32.472,12.75,51.8127
13:55:32.480,11.9375,51.8752
13:55:32.490,11.0625,49.6252
13:55:32.500,10.5625,49.3752
13:55:32.511,10.75,48.6252
13:55:32.520,9.9375,48.4377
13:55:32.529,9.5,47.8127
13:55:32.541,7.75,45.1877
13:55:32.550,6.1875,44.1877
13:55:32.559,5.0625,41.3752
13:55:32.570,3.875,39.4377
13:55:32.580,2.5,38.4376
13:55:32.590,0.875,35.2501
13:55:32.601,-1.1875,32.3126
13:55:32.610,-3.0625,30.0001
13:55:32.619,-4.75,28.4376
13:55:32.629,-6,26.2501
13:55:32.640,-6.625,25.5001
13:55:32.665,-5.4375,26.3126
13:55:32.667,-5,27.3751
13:55:32.670,-4.375,28.8126
13:55:32.685,-3.4375,28.3126
13:55:32.691,-4.125,27.5001
13:55:32.722,-4.4375,26.9376
13:55:32.725,-5.125,26.2501
13:55:32.727,-5.25,25.3751
13:55:32.731,-6.375,23.0001
13:55:32.773,-6.9375,21.9376
13:55:32.774,-8.5625,20.4376
13:55:32.777,-9.125,18.1876
13:55:32.778,-10.0625,14.7501
13:55:32.782,-10.75,13.7501
13:55:32.791,-10.9375,12.5625
13:55:32.806,-12.1875,11.125
13:55:32.811,-12.25,10.1875
13:55:32.826,-12.875,7.75
13:55:32.831,-13.2501,5.3125
13:55:32.845,-13.4376,5.0625
13:55:32.850,-13.6251,2.0625
13:55:32.859,-14.2501,0.6875
13:55:32.871,-14.6876,-0.625
13:55:32.879,-15.6251,-2.0625
13:55:32.890,-16.8751,-2.875
13:55:32.899,-17.0626,-4.8125
13:55:32.909,-17.6251,-6.625
13:55:32.919,-17.4376,-7.6875
13:55:32.930,-16.5001,-7.6875
13:55:32.940,-17.0626,-9.125
13:55:32.950,-17.1876,-10.0625
13:55:32.961,-16.5626,-9.5625
13:55:32.970,-16.3126,-10.75
13:55:32.980,-16.3751,-10.875
13:55:32.990,-16.7501,-11.375
13:55:32.999,-16.5001,-12.875
13:55:33.010,-17.3126,-13.8751
13:55:33.019,-17.6876,-15.8751
13:55:33.029,-18.6876,-15.5001
13:55:33.040,-18.6876,-17.9376
13:55:33.051,-19.4376,-18.7501
13:55:33.059,-19.5001,-20.3751
13:55:33.069,-18.8751,-19.3126
13:55:33.079,-16.9376,-16.3126
13:55:33.090,-13.1876,-11.4375
13:55:33.101,-9.25,-2.75
13:55:33.109,-4.5,5.625
13:55:33.119,0.125,16.5626
13:55:33.129,4.25,25.6876
13:55:33.141,8,34.0626
13:55:33.149,11.1875,41.0002
13:55:33.159,12.25,46.3752
13:55:33.169,12.4375,49.2502
13:55:33.180,12.375,51.4377
13:55:33.191,12.4375,51.1252
13:55:33.199,10.0625,50.3752
13:55:33.209,9.25,49.3127
13:55:33.219,7.6875,48.6877
13:55:33.231,9.6875,49.6877
13:55:33.240,8.9375,48.4377
13:55:33.250,8.8125,46.9377
13:55:33.259,8.4375,46.6252
13:55:33.270,7.3125,45.3127
13:55:33.280,7.1875,44.6252
13:55:33.290,7.25,43.3127
13:55:33.299,5.6875,41.8752
13:55:33.310,5.0625,41.1877
13:55:33.328,5,39.0001
13:55:33.343,3.8125,36.7501
13:55:33.345,4.6875,37.7501
13:55:33.350,5,36.7501
13:55:33.391,5.5625,35.9376
13:55:33.394,5.375,37.6876
13:55:33.395,6.6875,38.0001
13:55:33.399,7.0625,37.4376
13:55:33.401,5.875,36.6876
13:55:33.467,5.3125,37.4376
13:55:33.468,6.0625,36.6876
13:55:33.470,5.625,37.1876
13:55:33.476,5.8125,35.8751
13:55:33.476,6.9375,36.3126
13:55:33.476,6.25,34.6251
13:55:33.506,5.25,34.0001
13:55:33.509,5,32.0626
13:55:33.511,4.375,30.6251
13:55:33.516,3.75,28.6876
13:55:33.531,2.9375,27.0626
13:55:33.536,2.8125,27.3751
13:55:33.546,2.4375,24.6876
13:55:33.555,1.625,22.6251
13:55:33.565,1.625,21.6876
13:55:33.575,-1,18.8751
13:55:33.585,-4.0625,14.8751
13:55:33.596,-7.6875,10.125
13:55:33.605,-11.875,6.375
13:55:33.614,-14.6876,1.8125
13:55:33.624,-17.8126,-1.5625
13:55:33.634,-20.5626,-5.1875
13:55:33.645,-28.8126,-14.4376
13:55:33.655,-32.5626,-16.8751
13:55:33.665,-36.0001,-20.4376
13:55:33.676,-37.7501,-22.9376
13:55:33.684,-38.4376,-23.1876
13:55:33.716,-41.3127,-25.5001
13:55:33.720,-44.1877,-27.0626
13:55:33.721,-47.6877,-30.3126
13:55:33.726,-55.3752,-35.0626
13:55:33.736,-64.8753,-42.8127
13:55:33.745,-75.3753,-52.0627
13:55:33.755,-80.5628,-55.9377
13:55:33.766,-86.0628,-60.6877
13:55:33.775,-95.1254,-66.2503
13:55:33.785,-101.3754,-71.1878
13:55:33.796,-102.3754,-71.8753
13:55:33.804,-99.0004,-67.6878
13:55:33.814,-93.4379,-61.8127
13:55:33.826,-91.1254,-58.4377
13:55:33.835,-89.5003,-56.0002
13:55:33.845,-86.6878,-53.9377
13:55:33.854,-83.3753,-50.6252
13:55:33.864,-76.6253,-43.9377
13:55:33.875,-69.4378,-35.2501
13:55:33.886,-60.6252,-23.6251
13:55:33.895,-49.9377,-8.0625
13:55:33.905,-41.5627,4
13:55:33.915,-34.9376,15.1876
13:55:33.925,-31.0001,25.3126
13:55:33.935,-26.2501,33.7501
13:55:33.945,-20.8751,42.5627
13:55:33.956,-16.1876,49.1252
13:55:33.969,-9.75,58.3752
13:55:33.976,-4.375,64.0627
13:55:33.985,-0.1875,69.5628
13:55:33.995,3.3125,72.8128
13:55:34.006,6.8125,77.0003
13:55:34.015,12.875,81.8753
13:55:34.026,17.0001,86.1878
13:55:34.036,20.8126,88.7503
13:55:34.051,23.7501,92.3129
13:55:34.060,26.5001,93.3129
13:55:34.071,28.9376,95.9379
13:55:34.085,30.5626,96.5629
13:55:34.117,32.5626,97.6879
13:55:34.118,33.4376,98.2504
13:55:34.120,34.8751,98.4379
13:55:34.122,35.1251,98.2504
13:55:34.162,37.5626,98.6254
13:55:34.164,39.5627,98.8129
13:55:34.166,40.0002,99.0629
13:55:34.201,40.4377,98.2504
13:55:34.201,40.1252,97.1254
13:55:34.201,40.9377,96.0004
13:55:34.203,40.3127,95.1254
13:55:34.212,39.6252,93.6254
13:55:34.212,38.9376,92.1879
13:55:34.251,38.0001,89.3128
13:55:34.255,37.5001,88.4378
13:55:34.257,37.5626,87.5003
13:55:34.257,37.8751,85.1878
13:55:34.260,37.4376,83.7503
13:55:34.270,36.6876,80.9378
13:55:34.282,34.4376,76.1253
13:55:34.290,32.3126,72.3753
13:55:34.300,28.9376,68.3753
13:55:34.311,27.1251,63.9377
13:55:34.320,24.4376,59.1252
13:55:34.330,22.5626,55.5002
13:55:34.346,19.6876,50.5002
13:55:34.353,17.1251,46.5002
13:55:34.360,14.5626,42.1877
13:55:34.371,12,36.8751
13:55:34.379,9.375,33.3751
13:55:34.391,7.1875,29.3126
13:55:34.401,5.8125,24.1876
13:55:34.411,3.4375,20.8126
13:55:34.421,1.4375,16.9376
13:55:34.431,-0.25,13.5001
13:55:34.441,-1.875,10.9375
13:55:34.451,-2.375,8
13:55:34.461,-4.5,4.8125
13:55:34.471,-7.0625,1.375
13:55:34.481,-7.625,-1.125
13:55:34.491,-9.25,-4.1875
13:55:34.501,-10.3125,-7.4375
13:55:34.511,-13.1876,-10.6875
13:55:34.521,-14.3126,-13.1876
13:55:34.531,-16.3126,-16.0001
13:55:34.539,-17.2501,-18.6876
13:55:34.552,-18.5001,-20.8126
13:55:34.561,-20.4376,-22.5001
13:55:34.569,-21.5001,-26.0626
13:55:34.586,-22.5001,-28.6876
13:55:34.596,-23.9376,-31.2501
13:55:34.604,-24.8126,-32.0001
13:55:34.623,-24.7501,-34.3126
13:55:34.627,-25.2501,-33.2501
13:55:34.644,-22.7501,-32.4376
13:55:34.646,-19.9376,-26.6251
13:55:34.656,-14.1251,-20.3751
13:55:34.666,-8.6875,-9.4375
13:55:34.676,-2.0625,-0.3125
13:55:34.686,4.5625,11.4375
13:55:34.697,9.875,22.4376
13:55:34.706,14.7501,32.1251
13:55:34.722,16.6876,39.7502
13:55:34.737,18.9376,45.0002
13:55:34.740,19.2501,49.0002
13:55:34.754,19.7501,53.1252
13:55:34.757,20.1251,53.8752
13:55:34.767,20.0626,54.9377
13:55:34.776,19.0626,54.6252
13:55:34.786,17.8751,53.7502
13:55:34.817,16.6876,52.8752
13:55:34.819,16.6251,52.1252
13:55:34.822,15.5001,52.1877
13:55:34.826,14.8751,50.3127
13:55:34.857,14.8751,51.7502
13:55:34.860,13.7501,51.4377
13:55:34.862,13.2501,51.1877
13:55:34.866,12.6875,49.0627
13:55:34.903,12.25,49.3752
13:55:34.905,11,48.2502
13:55:34.907,10.5625,48.5002
13:55:34.914,10,48.6877
13:55:34.916,9.875,47.1252
13:55:34.929,10.125,47.1877
13:55:34.966,9.8125,47.6252
13:55:34.969,10.625,48.3752
13:55:34.971,11.5625,49.7502
13:55:34.997,12.625,50.8752
13:55:35.000,12.25,51.8752
13:55:35.000,11.5,52.1252
13:55:35.002,11.6875,51.0002
13:55:35.008,10.375,50.5002
13:55:35.017,10.0625,49.5002
13:55:35.027,9.125,48.3127
13:55:35.037,9.1875,47.3127
13:55:35.046,7.625,45.1252
13:55:35.057,7.125,44.3127
13:55:35.066,5.75,42.5627
13:55:35.076,4.9375,39.8752
13:55:35.087,3.4375,36.5001
13:55:35.096,2.3125,35.0626
13:55:35.106,1.4375,31.8751
13:55:35.116,1.0625,29.0626
13:55:35.126,-0.1875,26.9376
13:55:35.137,-2.3125,23.6876
13:55:35.146,-3.5,22.3126
13:55:35.157,-3.5625,20.1251
13:55:35.166,-4.4375,16.9376
13:55:35.177,-5.25,14.8751
13:55:35.186,-6.25,12.875
13:55:35.196,-6.6875,10.625
13:55:35.207,-7.5625,8.1875
13:55:35.216,-8.75,7.0625
13:55:35.226,-8.8125,4.75
13:55:35.236,-9.5,2.0625
13:55:35.248,-10.0625,-1.0625
13:55:35.256,-11.0625,-2.25
13:55:35.266,-11.6875,-4.25
13:55:35.276,-12.5,-7.5625
13:55:35.286,-13.8751,-10.375
13:55:35.296,-13.8126,-11.375
13:55:35.306,-13.6251,-13.5626
13:55:35.316,-14.2501,-16.0626
13:55:35.326,-15.0001,-17.6876
13:55:35.336,-16.3126,-21.1876
13:55:35.346,-16.8126,-22.0626
13:55:35.357,-15.1876,-20.6251
13:55:35.366,-12.3125,-17.1251
13:55:35.377,-8.4375,-10.125
13:55:35.386,-4.4375,-1.25
13:55:35.397,0.375,7.625
13:55:35.407,4.4375,17.3126
13:55:35.416,7.8125,24.8751
13:55:35.426,11,32.5626
13:55:35.436,12.9375,37.2501
13:55:35.446,14.3751,42.5002
13:55:35.456,14.0626,42.8752
13:55:35.471,13.0625,44.5627
13:55:35.476,12.5,43.0627
13:55:35.486,11.6875,43.5002
13:55:35.497,11.4375,42.8752
13:55:35.506,10,42.1252
13:55:35.516,9.375,41.1252
13:55:35.526,9.375,39.4377
13:55:35.536,8.125,40.1877
13:55:35.546,7.75,38.8126
13:55:35.556,7.25,36.6251
13:55:35.566,6.875,35.6876
13:55:35.576,5.1875,34.5626
13:55:35.586,4,32.3751
13:55:35.596,3.625,30.0001
13:55:35.608,2.4375,28.1251
13:55:35.633,2.125,26.4376
13:55:35.634,2.1875,27.5001
13:55:35.661,2.5,29.0001
13:55:35.663,3.3125,28.5626
13:55:35.666,4,28.9376
13:55:35.669,3.6875,28.8751
13:55:35.704,4.8125,30.8751
13:55:35.707,5.6875,32.5626
13:55:35.709,6.1875,32.5001
13:55:35.712,5.875,32.5626
13:55:35.718,5.6875,33.6876
13:55:35.751,6,33.3126
13:55:35.754,6.125,32.3751
13:55:35.756,4.3125,31.2501
13:55:35.763,3.1875,29.7501
13:55:35.777,2.375,29.5001
13:55:35.781,1.75,28.2501
13:55:35.791,1.8125,26.9376
13:55:35.797,0.9375,25.6251
13:55:35.806,0.4375,24.3126
13:55:35.816,-0.6875,23.2501
13:55:35.826,-1.5,21.8126
13:55:35.836,-2.3125,19.1251
13:55:35.847,-3.8125,17.5001
13:55:35.856,-4.0625,17.5001
13:55:35.866,-4.875,16.5001
13:55:35.876,-3.875,15.0001
13:55:35.886,-4.625,12.875
13:55:35.896,-5.25,14.5626
13:55:35.906,-4.6875,13.2501
13:55:35.922,-5.125,11.625
13:55:35.937,-6.375,10
13:55:35.939,-7.0625,10
13:55:35.946,-7.5625,8.5625
13:55:35.956,-7.9375,6.6875
13:55:35.966,-8.5625,6.3125
13:55:35.976,-9.5,5.4375
13:55:35.986,-9.625,3.3125
13:55:35.996,-11.25,1.6875
13:55:36.006,-11.0625,1.5625
13:55:36.017,-11.5,-1
13:55:36.033,-12.6875,-2.125
13:55:36.038,-13.3751,-1.1875
13:55:36.051,-10.5,-0.25
13:55:36.058,-7.8125,5.375
13:55:36.066,-2.875,10.875
13:55:36.076,3.1875,20.2501
13:55:36.087,8.9375,32.0001
13:55:36.096,15.3126,44.0002
13:55:36.106,21.9376,55.1252
13:55:36.116,25.9376,66.5003
13:55:36.126,29.7501,72.8753
13:55:36.136,31.5001,78.9378
13:55:36.147,33.4376,84.1878
13:55:36.156,33.4376,86.3753
13:55:36.167,33.7501,87.6878
13:55:36.176,33.8126,88.6253
13:55:36.186,33.5626,87.9378
13:55:36.196,33.0626,87.9378
13:55:36.207,32.5001,87.1878
13:55:36.222,32.0626,85.3128
13:55:36.227,31.1876,83.9378
13:55:36.236,30.8751,83.8128
13:55:36.246,30.5626,81.9378
13:55:36.275,29.9376,79.5628
13:55:36.278,28.4376,76.2503
13:55:36.280,26.3751,73.7503
13:55:36.287,25.6876,70.3128
13:55:36.296,23.8751,66.8753
13:55:36.324,22.5001,64.1877
13:55:36.327,21.7501,60.5002
13:55:36.328,20.0001,59.0627
13:55:36.359,20.3751,55.5627
13:55:36.362,19.2501,55.2502
13:55:36.365,18.6876,52.9377
13:55:36.367,18.2501,52.7502
13:55:36.404,17.7501,51.5002
13:55:36.406,16.6251,48.9377
13:55:36.409,15.8126,47.6877
13:55:36.414,15.0001,46.2502
13:55:36.417,13.2501,43.7502
13:55:36.446,10.8125,41.0002
13:55:36.449,8.8125,37.2501
13:55:36.451,7.3125,35.5001
13:55:36.457,5.9375,32.0001
13:55:36.486,4.8125,29.5001
13:55:36.487,3.625,25.3751
13:55:36.490,1.75,23.0626
13:55:36.498,0.375,19.6876
13:55:36.506,-2,16.4376
13:55:36.516,-3.375,13.5626
13:55:36.526,-5.8125,9.125
13:55:36.536,-6.75,6.25
13:55:36.546,-9,3
13:55:36.556,-9.8125,1
13:55:36.566,-10.9375,-1.5625
13:55:36.577,-11.125,-3.4375
13:55:36.586,-13.3751,-6.6875
13:55:36.598,-13.5001,-9.0625
13:55:36.606,-13.8126,-10.5625
13:55:36.616,-15.4376,-12.375
13:55:36.626,-16.3751,-14.3751
13:55:36.636,-17.4376,-17.0001
13:55:36.647,-19.0001,-19.6251
13:55:36.657,-20.7501,-22.5001
13:55:36.668,-21.4376,-23.1251
13:55:36.677,-22.8751,-25.9376
13:55:36.686,-24.0001,-27.7501
13:55:36.697,-23.6876,-29.1876
13:55:36.706,-26.1251,-31.8751
13:55:36.716,-26.6876,-33.5626
13:55:36.726,-28.0001,-35.1876
13:55:36.736,-29.4376,-37.5626
13:55:36.746,-29.6876,-39.6877
13:55:36.756,-31.1876,-39.3752
13:55:36.768,-30.6876,-41.4377
13:55:36.776,-30.0001,-40.8127
13:55:36.786,-28.0001,-39.2502
13:55:36.796,-24.5626,-33.0001
13:55:36.806,-17.4376,-23.8751
13:55:36.816,-9.9375,-10.9375
13:55:36.827,-1.375,2.6875
13:55:36.836,5.6875,17.6251
13:55:36.847,13.3126,33.0626
13:55:36.856,19.0001,45.1252
13:55:36.866,24.3751,56.8752
13:55:36.876,28.0626,65.7503
13:55:36.887,31.3751,73.5628
13:55:36.897,33.9376,78.6253
13:55:36.906,35.0001,82.8128
13:55:36.916,36.5001,85.5628
13:55:36.927,36.3126,88.4378
13:55:36.938,37.4376,90.0628
13:55:36.947,37.5001,91.0629
13:55:36.956,38.3126,91.8129
13:55:36.966,37.8126,91.7504
13:55:36.980,37.3751,92.3754
13:55:36.986,36.9376,92.4379
13:55:36.996,36.4376,93.1254
13:55:37.006,37.0001,92.3129
13:55:37.016,35.8751,91.6254
13:55:37.031,35.0626,91.1254
13:55:37.037,33.8126,88.3753
13:55:37.075,32.8126,86.6878
13:55:37.077,31.2501,84.2503
13:55:37.080,29.9376,83.1253
13:55:37.082,30.1251,81.6878
13:55:37.088,29.9376,81.1878
13:55:37.124,29.5001,82.0003
13:55:37.126,30.2501,81.0003
13:55:37.128,31.0001,82.0003
13:55:37.163,30.2501,82.1878
13:55:37.165,30.3126,81.5628
13:55:37.165,29.8751,80.4378
13:55:37.167,28.8126,79.0628
13:55:37.173,27.1251,76.1253
13:55:37.188,26.3751,74.5628
13:55:37.191,24.6251,71.1878
13:55:37.206,23.1876,68.1878
13:55:37.209,22.8751,65.6877
13:55:37.223,22.7501,63.1877
13:55:37.231,20.4376,59.9377
13:55:37.238,18.5001,55.3127
13:55:37.255,15.3126,50.0002
13:55:37.261,13.5001,45.9377
13:55:37.270,10.875,40.8127
13:55:37.277,8.6875,37.5626
13:55:37.288,7.125,32.8126
13:55:37.296,5.5,28.5001
13:55:37.306,2.75,24.3751
13:55:37.316,1.4375,20.4376
13:55:37.333,-0.75,15.3126
13:55:37.338,-3.8125,10.4375
13:55:37.346,-5.0625,6.875
13:55:37.360,-7.875,2.4375
13:55:37.372,-8.6875,-1.125
13:55:37.387,-10.6875,-4.3125
13:55:37.390,-12,-7.8125
13:55:37.396,-14.1876,-11.1875
13:55:37.409,-15.0626,-14.9376
13:55:37.417,-16.7501,-18.7501
13:55:37.426,-19.1251,-23.1251
13:55:37.436,-21.5626,-26.4376
13:55:37.447,-23.2501,-29.6876
13:55:37.456,-25.5001,-34.2501
13:55:37.466,-28.0001,-38.3751
13:55:37.478,-30.1251,-41.0627
13:55:37.486,-31.4376,-44.2502
13:55:37.497,-33.8126,-49.2502
13:55:37.507,-36.2501,-53.0627
13:55:37.517,-38.1876,-55.5627
13:55:37.528,-39.8127,-59.6252
13:55:37.556,-41.8752,-63.1252
13:55:37.558,-41.9377,-64.2502
13:55:37.561,-41.1877,-64.7502
13:55:37.567,-37.7501,-59.7502
13:55:37.576,-32.8126,-52.7502
13:55:37.587,-26.3751,-41.1252
13:55:37.597,-19.6251,-29.3126
13:55:37.607,-11.6875,-13.5001
13:55:37.617,-3.75,0.5625
13:55:37.627,2.0625,12.8125
13:55:37.637,6.8125,25.1251
13:55:37.646,11.6875,34.6876
13:55:37.657,13.5001,41.3127
13:55:37.666,16.0626,47.1252
13:55:37.679,17.1251,51.7502
13:55:37.687,16.6251,52.8752
13:55:37.697,16.2501,55.5002
13:55:37.708,17.2501,55.1877
13:55:37.717,17.5626,57.0627
13:55:37.731,17.6876,57.8127
13:55:37.737,18.6251,59.7502
13:55:37.746,19.0626,62.2502
13:55:37.781,20.7501,63.4377
13:55:37.784,21.2501,65.6253
13:55:37.785,20.9376,65.3127
13:55:37.788,20.8751,64.6877
13:55:37.817,20.1876,64.5002
13:55:37.823,20.2501,64.0002
13:55:37.824,18.6876,63.2502
13:55:37.827,18.1876,61.9377
13:55:37.855,18.0001,60.7502
13:55:37.858,17.5001,60.1252
13:55:37.860,18.1876,60.6877
13:55:37.867,18.3126,60.1252
13:55:37.898,18.8751,60.6252
13:55:37.901,19.6251,61.6877
13:55:37.904,19.3126,62.6877
13:55:37.908,20.7501,63.5002
13:55:37.935,20.1251,63.8127
13:55:37.937,19.0626,63.6252
13:55:37.939,18.4376,62.1252
13:55:37.946,17.4376,60.0002
13:55:37.959,16.6876,59.3127
13:55:37.968,15.2501,57.5002
13:55:37.976,14.0626,55.3752
13:55:37.987,12.1875,54.3127
13:55:37.997,11.9375,51.3752
13:55:38.007,10.625,49.9377
13:55:38.018,9.125,46.6252
13:55:38.027,7.9375,44.5627
13:55:38.036,6,41.6877
13:55:38.047,4.375,40.1877
13:55:38.062,3.375,37.4376
13:55:38.073,2.5,33.9376
13:55:38.082,1.875,32.0626
13:55:38.092,0.25,29.4376
13:55:38.102,-1.8125,27.1251
13:55:38.112,-3.6875,24.0001
13:55:38.122,-5.1875,20.3126
13:55:38.131,-6.6875,18.0626
13:55:38.142,-8.1875,14.0626
13:55:38.152,-8.9375,11.875
13:55:38.162,-9.9375,10.1875
13:55:38.172,-11.625,9
13:55:38.182,-11.9375,5.6875
13:55:38.192,-13.3751,2.9375
13:55:38.202,-14.0001,0.625
13:55:38.212,-14.3126,-1.5
13:55:38.224,-16.0001,-5.5
13:55:38.234,-16.5001,-7.5
13:55:38.242,-17.8751,-9.625
13:55:38.252,-19.6251,-11.8125
13:55:38.262,-20.3126,-15.9376
13:55:38.272,-22.0001,-19.5626
13:55:38.282,-23.8126,-21.6876
13:55:38.294,-25.1251,-26.5626
13:55:38.303,-27.1876,-30.5626
13:55:38.312,-29.0001,-32.8126
13:55:38.323,-30.8126,-37.1251
13:55:38.332,-31.7501,-40.6252
13:55:38.342,-31.3751,-41.3752
13:55:38.353,-30.0001,-40.6877
13:55:38.362,-26.9376,-35.5626
13:55:38.372,-21.8751,-28.4376
13:55:38.382,-16.0001,-18.4376
13:55:38.393,-8.9375,-4.8125
13:55:38.430,-2.625,6.625
13:55:38.432,3.3125,19.3751
13:55:38.435,9,30.8751
13:55:38.439,11.875,38.8751
13:55:38.448,13.8126,45.2502
13:55:38.459,14.8126,48.5002
13:55:38.468,15.3751,51.6877
13:55:38.483,15.5626,52.5627
13:55:38.487,14.9376,51.1877
13:55:38.497,14.1876,52.1877
13:55:38.527,14.0626,51.3752
13:55:38.528,12.8125,52.1877
13:55:38.531,12.875,50.0002
13:55:38.576,12.0625,49.8752
13:55:38.577,12.0625,47.9377
13:55:38.651,10.25,46.8752
13:55:38.651,9.3125,45.7502
13:55:38.651,7.25,43.0627
13:55:38.662,6,39.1877
13:55:38.683,4.125,36.2501
13:55:38.686,3.375,33.6876
13:55:38.701,2.0625,31.6251
13:55:38.701,1.125,30.7501
13:55:38.702,0.9375,29.8751
13:55:38.717,0.375,27.7501
13:55:38.722,0.4375,27.3751
13:55:38.723,0.3125,26.9376
13:55:38.723,0.4375,26.7501
13:55:38.727,0.9375,26.5001
13:55:38.737,0.9375,26.6876
13:55:38.747,0.875,26.5626
13:55:38.757,-0.0625,26.5001
13:55:38.767,-0.875,25.3751
13:55:38.777,-1.875,23.1251
13:55:38.787,-2.5,23.1876
13:55:38.797,-3.125,20.1876
13:55:38.807,-3.75,19.0626
13:55:38.835,-5.875,17.5001
13:55:38.837,-6.125,15.0626
13:55:38.839,-12.0625,4.75
13:55:38.847,-13.8126,1.6875
13:55:38.863,-15.0001,-0.1875
13:55:38.867,-15.8126,-1.6875
13:55:38.877,-16.3126,-4.875
13:55:38.887,-17.1876,-7.125
13:55:38.897,-17.5001,-8.25
13:55:38.907,-18.1876,-10.625
13:55:38.917,-19.3126,-11.5
13:55:38.927,-20.1876,-13.8126
13:55:38.937,-21.5001,-17.0626
13:55:38.947,-22.0626,-17.5626
13:55:38.957,-22.7501,-19.3126
13:55:38.967,-22.5001,-19.8126
13:55:38.977,-22.5001,-20.0001
13:55:38.987,-22.6251,-21.0626
13:55:38.997,-23.1251,-22.6876
13:55:39.007,-23.0001,-23.0001
13:55:39.017,-23.8751,-25.6251
13:55:39.027,-25.1876,-26.5626
13:55:39.037,-25.6251,-28.5001
13:55:39.047,-26.1251,-29.8751
13:55:39.057,-26.8126,-31.8751
13:55:39.067,-27.2501,-32.8126
13:55:39.077,-28.0626,-33.9376
13:55:39.087,-29.0001,-36.6251
13:55:39.097,-29.8126,-37.7501
13:55:39.107,-30.3126,-40.9377
13:55:39.117,-31.8126,-42.1252
13:55:39.127,-32.7501,-44.6877
13:55:39.137,-32.7501,-46.1877
13:55:39.147,-31.8126,-44.9377
13:55:39.157,-28.0626,-40.5627
13:55:39.167,-22.3126,-33.3751
13:55:39.177,-15.2501,-21.0626
13:55:39.187,-7.25,-7.0625
13:55:39.197,0.3125,8.25
13:55:39.207,8.125,23.1251
13:55:39.217,13.6876,36.0001
13:55:39.229,18.1876,50.3752
13:55:39.243,23.3751,59.4377
13:55:39.258,26.0001,68.5003
13:55:39.262,29.3751,75.4378
13:55:39.277,32.3751,83.6253
13:55:39.282,38.0001,92.8129
13:55:39.313,46.1877,104.6879
13:55:39.315,54.3752,117.4379
13:55:39.317,59.3127,127.5005
13:55:39.322,64.7502,137.6255
13:55:39.352,77.0003,153.2506
13:55:39.353,89.5628,167.1256
13:55:39.357,98.6879,179.5007
13:55:39.382,106.1254,187.1257
13:55:39.384,109.8754,190.9382
13:55:39.387,110.4379,192.6882
13:55:39.414,109.5004,192.3132
13:55:39.415,108.9379,190.8757
13:55:39.417,108.4379,190.5007
13:55:39.424,107.3129,188.0632
13:55:39.429,104.2504,185.7507
13:55:39.439,101.7504,183.1882
13:55:39.449,98.2504,178.6257
13:55:39.459,92.2504,172.6882
13:55:39.468,87.2503,166.4381
13:55:39.479,82.5628,161.0006
13:55:39.489,76.5003,155.1881
13:55:39.499,71.5003,148.0631
13:55:39.507,65.8753,143.6255
13:55:39.517,60.3127,138.313
13:55:39.527,57.0627,131.188
13:55:39.537,52.8127,126.2505
13:55:39.547,48.7502,120.563
13:55:39.557,45.0627,115.6254
13:55:39.567,41.8127,110.5004
13:55:39.577,38.9376,106.7504
13:55:39.587,36.3751,103.4379
13:55:39.597,35.6251,99.6879
13:55:39.607,33.4376,97.0629
13:55:39.618,31.3751,92.6254
13:55:39.627,28.0001,87.4378
13:55:39.637,24.1251,82.3128
13:55:39.647,21.0001,76.1878
13:55:39.657,17.5001,71.8753
13:55:39.667,15.2501,66.8128
13:55:39.677,12.4375,63.2502
13:55:39.687,10.8125,59.6252
13:55:39.697,8.25,55.2502
13:55:39.709,4.75,51.1252
13:55:39.717,2.0625,44.9377
13:55:39.727,0.1875,40.7502
13:55:39.738,-3.8125,36.0001
13:55:39.748,-6.4375,31.1876
13:55:39.758,-8.8125,27.0626
13:55:39.769,-11.4375,22.2501
13:55:39.781,-13.6251,18.8751
13:55:39.790,-16.6876,14.6876
13:55:39.797,-19.4376,10.4375
13:55:39.808,-21.1876,5.8125
13:55:39.817,-24.4376,2.625
13:55:39.827,-25.5001,-1.4375
13:55:39.837,-27.6251,-4.5625
13:55:39.847,-30.1251,-9.5625
13:55:39.857,-32.8126,-13.5001
13:55:39.867,-36.0626,-18.8751
13:55:39.887,-39.5627,-24.1251
13:55:39.893,-42.4377,-29.8126
13:55:39.902,-34.1876,-17.9376
13:55:39.907,-30.6251,-25.6876
13:55:39.956,-35.9376,-34.4376
13:55:39.956,-38.6876,-41.8127
13:55:39.958,-40.7502,-45.6877
13:55:39.961,-42.0627,-52.0002
13:55:39.963,-41.8127,-52.5627
13:55:39.992,-36.8751,-51.5627
13:55:39.995,-30.4376,-43.8752
13:55:40.035,-21.5001,-36.2501
13:55:40.037,-13.1876,-24.9376
13:55:40.072,-5.75,-16.3126
13:55:40.105,-0.9375,-7.5625
13:55:40.107,4.5625,-3.1875
13:55:40.131,6.625,1.6875
13:55:40.131,9.1875,2.0625
13:55:40.132,6.5,-0.3125
13:55:40.133,2.9375,-6.5
13:55:40.138,-2.125,-13.5001
13:55:40.141,-8.3125,-23.7501
13:55:40.141,-15.0626,-31.6251
13:55:40.148,-20.0001,-40.8752
13:55:40.157,-25.1251,-47.3752
13:55:40.169,-26.5001,-54.4377
13:55:40.177,-26.6876,-57.6252
13:55:40.187,-28.6251,-60.6877
13:55:40.197,-27.8126,-61.8127
13:55:40.207,-26.3751,-61.8752
13:55:40.218,-24.8751,-61.5627
13:55:40.228,-24.9376,-63.8752
13:55:40.237,-26.3751,-66.1253
13:55:40.248,-26.6876,-68.4378
13:55:40.257,-26.5626,-72.3753
13:55:40.267,-24.6876,-71.8753
13:55:40.277,-24.2501,-70.9378
13:55:40.287,-24.5626,-71.8753
13:55:40.298,-25.7501,-72.3753
13:55:40.307,-29.0001,-76.4378
13:55:40.318,-30.8751,-77.7503
13:55:40.328,-33.5626,-80.1878
13:55:40.337,-34.0626,-80.9378
13:55:40.350,-35.2501,-80.8128
13:55:40.357,-36.8126,-84.6253
13:55:40.368,-38.1251,-85.6253
13:55:40.377,-40.3127,-87.1878
13:55:40.387,-41.8127,-90.6879
13:55:40.398,-42.7502,-92.0004
13:55:40.410,-44.3127,-94.3129
13:55:40.421,-45.0002,-95.8129
13:55:40.430,-46.8127,-97.0004
13:55:40.440,-47.9377,-100.5629
13:55:40.448,-48.8752,-101.0629
13:55:40.457,-52.0002,-105.1879
13:55:40.467,-54.0002,-107.1254
13:55:40.478,-55.5627,-109.9379
13:55:40.487,-55.8752,-111.1879
13:55:40.501,-55.9377,-111.7504
13:55:40.507,-56.7502,-112.5004
13:55:40.518,-56.6877,-113.0004
13:55:40.529,-56.8127,-112.5629
13:55:40.540,-56.5002,-113.0629
13:55:40.547,-55.6252,-112.5004
13:55:40.558,-56.1252,-111.8129
13:55:40.569,-56.6877,-113.0629
13:55:40.578,-57.2502,-111.9379
13:55:40.588,-56.6252,-113.0629
13:55:40.598,-56.8127,-112.3129
13:55:40.611,-56.8752,-112.9379
13:55:40.618,-57.3752,-113.6254
13:55:40.629,-58.0002,-114.1254
13:55:40.640,-59.2502,-115.7504
13:55:40.647,-59.8127,-115.6879
13:55:40.687,-61.1252,-117.7505
13:55:40.688,-62.1252,-118.313
13:55:40.691,-62.5002,-119.3755
13:55:40.693,-63.5002,-119.313
13:55:40.701,-63.1877,-120.563
13:55:40.727,-63.1877,-119.8755
13:55:40.729,-62.7502,-120.688
13:55:40.733,-62.0002,-119.563
13:55:40.738,-61.9377,-117.2504
13:55:40.770,-58.8127,-114.6879
13:55:40.773,-54.5627,-107.0629
13:55:40.775,-48.0627,-97.0629
13:55:40.778,-39.0626,-83.3753
13:55:40.815,-31.5001,-67.3128
13:55:40.817,-22.7501,-50.8127
13:55:40.820,-14.6251,-33.7501
13:55:40.822,-8.75,-19.4376
13:55:40.828,-3.1875,-6.625
13:55:40.839,0.125,1.6875
13:55:40.849,1.8125,8.75
13:55:40.860,2.4375,13.3126
13:55:40.869,2.6875,14.0626
13:55:40.880,2.3125,15.5001
13:55:40.888,1.125,14.1876
13:55:40.898,0.875,14.0626
13:55:40.908,0.1875,13.8126
13:55:40.919,-0.6875,11.6875
13:55:40.928,-2.1875,10.875
13:55:40.938,-4,7.875
13:55:40.949,-4.4375,6.6875
13:55:40.958,-6.125,6.625
13:55:40.969,-6.5,3.5
13:55:40.979,-7.9375,3.0625
13:55:40.988,-8.4375,-0.1875
13:55:40.998,-9.5625,-1.1875
13:55:41.008,-11.625,-4.5
13:55:41.018,-12.625,-7.3125
13:55:41.029,-13.3751,-8.8125
13:55:41.038,-13.8126,-8.5625
13:55:41.048,-13.6251,-8.5
13:55:41.062,-13.5626,-7.9375
13:55:41.068,-12.4375,-6.125
13:55:41.078,-10.9375,-5
13:55:41.088,-11.0625,-4.5625
13:55:41.098,-11.5625,-4.4375
13:55:41.110,-12.3125,-5.25
13:55:41.118,-13.3751,-6.4375
13:55:41.129,-13.9376,-6.875
13:55:41.138,-13.6876,-7.625
13:55:41.148,-14.8751,-7.6875
13:55:41.158,-15.2501,-8.9375
13:55:41.168,-15.8126,-10.125
13:55:41.178,-16.3751,-12.75
13:55:41.188,-18.9376,-15.5626
13:55:41.200,-21.6251,-20.0626
13:55:41.208,-24.1876,-22.7501
13:55:41.223,-25.8126,-26.5626
13:55:41.233,-27.1876,-28.9376
13:55:41.238,-28.5001,-30.1876
13:55:41.255,-28.0626,-33.2501
13:55:41.257,-28.9376,-33.7501
13:55:41.268,-29.5626,-36.1876
13:55:41.279,-29.4376,-37.3126
13:55:41.291,-31.4376,-40.2502
13:55:41.299,-32.6876,-43.7502
13:55:41.309,-35.3751,-45.9377
13:55:41.320,-37.0001,-49.8752
13:55:41.328,-37.7501,-50.8752
13:55:41.338,-38.9376,-52.5627
13:55:41.349,-38.5626,-53.8752
13:55:41.359,-39.1251,-53.3127
13:55:41.370,-38.8126,-55.4377
13:55:41.395,-38.1876,-55.3752
13:55:41.397,-38.1876,-56.0627
13:55:41.413,-38.5626,-56.7502
13:55:41.414,-39.8752,-59.1252
13:55:41.450,-40.4377,-59.5627
13:55:41.486,-40.8127,-60.2502
13:55:41.487,-39.4377,-60.4377
13:55:41.487,-39.6252,-60.0002
13:55:41.489,-39.0626,-61.2502
13:55:41.491,-39.0627,-60.9377
13:55:41.497,-39.3752,-62.9377
13:55:41.497,-39.3752,-63.2502
13:55:41.499,-40.2502,-63.9377
13:55:41.525,-39.6877,-65.0627
13:55:41.527,-38.8751,-63.6877
13:55:41.530,-37.0001,-61.9377
13:55:41.565,-31.5626,-54.3127
13:55:41.566,-24.9376,-44.5002
13:55:41.568,-17.0001,-30.2501
13:55:41.571,-7.0625,-14.3126
13:55:41.601,1,1.625
13:55:41.605,7.6875,17.9376
13:55:41.606,15.4376,32.8126
13:55:41.608,21.5001,44.8752
13:55:41.619,25.6876,55.4377
13:55:41.634,28.8126,61.6252
13:55:41.639,31.0626,65.5003
13:55:41.648,30.8126,66.6878
13:55:41.659,30.1876,66.9378
13:55:41.670,29.2501,65.7503
13:55:41.678,27.5001,63.6252
13:55:41.688,26.0626,61.9377
13:55:41.698,25.0626,60.4377
13:55:41.708,24.6876,58.3752
13:55:41.718,23.3126,56.8127
13:55:41.728,22.4376,54.5002
13:55:41.738,22.4376,52.5627
13:55:41.749,21.1876,49.8127
13:55:41.760,20.6876,48.1252
13:55:41.768,19.0001,45.0002
13:55:41.778,17.5626,42.8752
13:55:41.788,16.6876,40.0002
13:55:41.798,14.4376,38.2501
13:55:41.808,13.8751,35.2501
13:55:41.818,13.2501,33.0001
13:55:41.830,13,34.0001
13:55:41.838,13.0625,32.7501
13:55:41.848,13.5001,34.3126
13:55:41.859,13.3751,33.3751
13:55:41.869,14.1876,33.6876
13:55:41.878,13.8751,33.5626
13:55:41.888,13.0625,33.0001
13:55:41.899,13.2501,32.4376
13:55:41.913,12.1875,31.4376
13:55:41.923,11,30.3751
13:55:41.935,10.5,27.5001
13:55:41.944,9.75,26.0626
13:55:41.953,8.25,23.8126
13:55:41.963,7.0625,20.0001
13:55:41.973,5.625,17.4376
13:55:41.983,4.75,15.1876
13:55:41.994,3,11.4375
13:55:42.008,1.25,8.75
13:55:42.013,0.6875,6.375
13:55:42.023,-1,2.9375
13:55:42.033,-2.3125,0.8125
13:55:42.043,-4,-3.5625
13:55:42.053,-4.5625,-5.1875
13:55:42.064,-6.125,-8.6875
13:55:42.075,-7.5625,-11.875
13:55:42.083,-8.9375,-14.5001
13:55:42.093,-10.125,-17.3751
13:55:42.103,-10.3125,-18.7501
13:55:42.113,-11.5,-20.7501
13:55:42.123,-12.5,-22.7501
13:55:42.133,-13.0625,-24.3126
13:55:42.171,-13.4376,-25.6251
13:55:42.174,-14.8751,-27.8751
13:55:42.177,-14.3751,-28.0626
13:55:42.178,-15.8126,-29.8126
13:55:42.209,-15.4376,-31.3126
13:55:42.211,-16.6876,-31.5001
13:55:42.213,-16.8751,-33.6251
13:55:42.220,-18.0626,-35.5626
13:55:42.251,-18.0626,-36.7501
13:55:42.254,-17.6251,-37.3751
13:55:42.256,-18.1251,-37.1876
13:55:42.260,-17.4376,-38.1876
13:55:42.290,-17.1251,-38.5626
13:55:42.292,-17.7501,-40.1252
13:55:42.295,-17.0626,-40.6877
13:55:42.323,-18.1251,-41.3127
13:55:42.323,-15.8751,-40.2502
13:55:42.327,-8.5625,-27.8751
13:55:42.331,-1.25,-16.7501
13:55:42.338,8.1875,-2.1875
13:55:42.348,17.5626,15.6876
13:55:42.358,26.3751,32.1251
13:55:42.369,34.8126,48.5627
13:55:42.383,40.6877,61.3127
13:55:42.388,44.4377,71.6878
13:55:42.399,47.5627,79.2503
13:55:42.409,49.0002,83.8753
13:55:42.418,48.5627,85.9378
13:55:42.428,48.3127,84.9378
13:55:42.438,45.7502,83.3753
13:55:42.451,43.3752,79.5003
13:55:42.459,40.9377,76.1878
13:55:42.468,39.1877,73.0628
13:55:42.478,37.1251,69.1878
13:55:42.488,36.5626,67.3753
13:55:42.499,35.2501,65.1252
13:55:42.510,34.3751,62.8127
13:55:42.518,33.3126,61.2502
13:55:42.539,31.8751,58.0627
13:55:42.542,30.2501,54.0627
13:55:42.552,28.6876,51.1252
13:55:42.558,26.8126,47.4377
13:55:42.573,25.6251,45.1252
13:55:42.583,24.4376,43.6252
13:55:42.591,24.2501,41.2502
13:55:42.599,24.8751,41.4377
13:55:42.608,24.8751,40.5002
13:55:42.619,25.1876,41.3752
13:55:42.628,25.8126,41.4377
13:55:42.638,25.1876,41.3752
13:55:42.649,24.6876,41.5002
13:55:42.674,24.8751,39.9377
13:55:42.678,24.1251,39.0001
13:55:42.681,23.4376,38.0001
13:55:42.690,22.7501,35.6876
13:55:42.699,20.8126,34.0001
13:55:42.709,18.7501,30.6251
13:55:42.731,17.6251,26.8751
13:55:42.733,15.3751,23.3126
13:55:42.742,12.875,19.3751
13:55:42.750,10.625,15.3751
13:55:42.765,8.4375,12.5
13:55:42.772,7.5,8.5625
13:55:42.779,4.375,4.3125
13:55:42.788,2.8125,1.9375
13:55:42.800,0.875,-2.75
13:55:42.809,-1.625,-5.5625
13:55:42.821,-2.8125,-9.4375
13:55:42.828,-5.1875,-12.875
13:55:42.840,-6.5625,-17.0001
13:55:42.849,-8.625,-20.1876
13:55:42.861,-11.1875,-23.8126
13:55:42.868,-12.25,-26.8126
13:55:42.900,-14.5001,-29.7501
13:55:42.903,-15.3751,-32.2501
13:55:42.903,-16.4376,-34.0626
13:55:42.909,-18.1251,-35.7501
13:55:42.936,-18.5626,-38.5001
13:55:42.939,-19.3751,-40.0627
13:55:42.943,-20.1251,-41.8752
13:55:42.976,-21.1251,-43.0627
13:55:42.978,-22.0001,-45.0627
13:55:42.981,-22.4376,-46.1877
13:55:42.984,-22.8751,-47.6252
13:55:42.989,-23.3126,-48.8127
13:55:42.999,-22.9376,-49.3127
13:55:43.031,-23.3126,-50.1877
13:55:43.034,-23.6876,-51.8752
13:55:43.039,-23.3126,-52.5002
13:55:43.042,-24.3751,-53.3752
13:55:43.060,-21.8126,-52.0002
13:55:43.062,-19.4376,-48.2502
13:55:43.068,-13.2501,-40.8752
13:55:43.081,-6.5625,-29.3126
13:55:43.089,3.1875,-14.3126
13:55:43.098,11.75,2
13:55:43.109,21.4376,19.1251
13:55:43.119,29.5626,35.8126
13:55:43.134,37.1251,50.1252
13:55:43.141,41.4377,62.0627
13:55:43.149,44.8752,68.6253
13:55:43.159,45.8752,73.3128
13:55:43.169,45.4377,74.9378
13:55:43.181,44.0627,73.7503
13:55:43.189,41.8127,71.8128
13:55:43.200,40.1877,69.1878
13:55:43.209,37.3751,65.7503
13:55:43.218,35.5626,62.5002
13:55:43.230,34.0001,58.8752
13:55:43.238,31.8126,56.6877
13:55:43.248,29.8126,52.5627
13:55:43.260,29.0001,49.9377
13:55:43.268,27.6876,47.4377
13:55:43.281,26.1876,45.1877
13:55:43.294,25.0626,42.1252
13:55:43.299,23.4376,39.5002
13:55:43.311,22.4376,35.7501
13:55:43.318,20.4376,32.8751
13:55:43.330,18.8751,29.8126
13:55:43.338,18.6876,28.0001
13:55:43.350,18.9376,28.6251
13:55:43.359,19.5001,27.3126
13:55:43.368,19.7501,28.5001
13:55:43.380,19.8751,27.9376
13:55:43.390,19.9376,28.0001
13:55:43.401,19.7501,28.3751
13:55:43.410,19.8751,26.8126
13:55:43.418,18.6876,26.6251
13:55:43.428,18.5001,25.4376
13:55:43.439,17.6251,23.5626
13:55:43.449,16.5001,22.3751
13:55:43.459,15.3751,20.4376
13:55:43.470,14.0626,17.4376
13:55:43.481,12.4375,14.8751
13:55:43.491,11.5,11.25
13:55:43.499,10,8.75
13:55:43.513,8.1875,4.875
13:55:43.519,6.4375,2.125
13:55:43.531,4.6875,-0.9375
13:55:43.538,3.5625,-3
13:55:43.549,1.625,-6.4375
13:55:43.560,0.25,-9.25
13:55:43.570,-1.3125,-13.0625
13:55:43.581,-1.8125,-15.1251
13:55:43.590,-3.375,-18.0626
13:55:43.599,-5.1875,-20.8751
13:55:43.609,-6.9375,-22.7501
13:55:43.624,-8,-25.6876
13:55:43.631,-9.4375,-28.0001
13:55:43.661,-10.5,-29.1876
13:55:43.663,-11.25,-32.0626
13:55:43.666,-12.875,-33.6876
13:55:43.671,-14.1251,-36.0626
13:55:43.699,-15.2501,-38.3126
13:55:43.702,-16.0001,-40.0002
13:55:43.705,-17.3751,-41.6252
13:55:43.710,-17.5001,-42.4377
13:55:43.743,-18.6876,-44.4377
13:55:43.745,-19.7501,-46.3752
13:55:43.747,-20.8751,-47.6252
13:55:43.750,-21.7501,-49.6877
13:55:43.783,-23.0626,-50.5627
13:55:43.786,-24.3126,-53.5002
13:55:43.788,-24.8126,-54.5627
13:55:43.791,-25.1251,-54.7502
13:55:43.800,-23.1876,-53.5002
13:55:43.809,-18.5626,-47.1877
13:55:43.822,-13.6251,-37.8126
13:55:43.829,-5.5,-24.8126
13:55:43.839,3.75,-7.8125
13:55:43.858,13.5626,8.75
13:55:43.863,23.4376,27.8126
13:55:43.871,31.0626,41.8752
13:55:43.880,37.2501,55.5627
13:55:43.890,41.1252,63.1252
13:55:43.903,43.0002,69.5003
13:55:43.912,43.0627,71.0003
13:55:43.919,43.6877,71.5628
13:55:43.930,42.0002,71.4378
13:55:43.956,41.0002,68.5628
13:55:43.958,39.9377,67.4378
13:55:43.961,38.5626,63.8752
13:55:43.969,36.5001,62.0002
13:55:43.979,35.6251,58.7502
13:55:43.991,32.9376,56.3752
13:55:44.000,31.9376,53.8127
13:55:44.010,30.1876,50.8127
13:55:44.019,28.3751,48.1252
13:55:44.031,26.5001,45.0627
13:55:44.049,24.7501,41.0002
13:55:44.051,22.3751,38.0001
13:55:44.066,20.9376,34.1251
13:55:44.081,18.8126,31.3126
13:55:44.085,17.3751,28.5001
13:55:44.092,17.4376,28.2501
13:55:44.099,18.0626,26.8751
13:55:44.111,17.6251,28.4376
13:55:44.121,18.8751,28.1251
13:55:44.129,18.8751,29.9376
13:55:44.139,19.9376,28.9376
13:55:44.150,18.5626,29.6251
13:55:44.159,18.5001,27.5001
13:55:44.170,16.7501,26.5626
13:55:44.179,15.5001,23.7501
13:55:44.189,13.5001,21.5626
13:55:44.200,11.5625,18.0626
13:55:44.211,9.6875,14.5001
13:55:44.219,7.5625,12.625
13:55:44.229,6.5625,8.9375
13:55:44.240,4.75,6.0625
13:55:44.249,2.9375,2.8125
13:55:44.261,1.4375,-0.75
13:55:44.271,-0.1875,-2.4375
13:55:44.280,-1.9375,-6.1875
13:55:44.291,-3.375,-9.5625
13:55:44.301,-4.5,-12.5
13:55:44.310,-7,-14.3126
13:55:44.319,-8.3125,-18.1876
13:55:44.331,-9.4375,-20.8751
13:55:44.345,-11.0625,-22.1251
13:55:44.350,-11.375,-25.0626
13:55:44.380,-12.75,-26.5001
13:55:44.383,-13.3751,-27.6876
13:55:44.385,-13.6251,-28.6251
13:55:44.391,-14.5626,-29.8126
13:55:44.416,-14.1876,-31.8751
13:55:44.417,-15.5626,-32.0626
13:55:44.419,-14.9376,-33.3126
13:55:44.457,-15.1876,-33.5001
13:55:44.460,-15.6251,-34.2501
13:55:44.462,-14.4376,-34.0626
13:55:44.465,-14.5626,-34.5626
13:55:44.469,-14.6251,-34.6251
13:55:44.510,-15.5001,-35.6251
13:55:44.513,-15.3751,-37.0626
13:55:44.516,-16.2501,-38.2501
13:55:44.519,-16.1251,-39.1251
13:55:44.520,-15.8751,-38.9376
13:55:44.530,-15.9376,-40.6252
13:55:44.539,-15.0001,-39.7502
13:55:44.550,-15.1876,-39.1877
13:55:44.559,-14.0626,-39.3752
13:55:44.571,-12,-35.7501
13:55:44.579,-7.6875,-29.0001
13:55:44.590,0.5,-18.1876
13:55:44.600,9.0625,-2.125
13:55:44.609,18.9376,14.6876
13:55:44.619,28.9376,33.7501
13:55:44.631,36.5626,51.0627
13:55:44.646,45.2502,65.8753
13:55:44.649,49.9377,78.6253
13:55:44.661,53.6252,85.6878
13:55:44.670,54.3752,91.3129
13:55:44.680,55.3752,92.5004
13:55:44.689,53.3752,93.2504
13:55:44.699,51.8752,90.1878
13:55:44.710,50.4377,88.0003
13:55:44.719,47.1877,84.9378
13:55:44.729,44.8752,80.5628
13:55:44.739,42.0002,78.4378
13:55:44.751,40.2502,74.6878
13:55:44.759,37.6251,71.4378
13:55:44.769,36.4376,69.6253
13:55:44.780,34.1251,66.0628
13:55:44.789,30.8751,62.2502
13:55:44.799,28.0626,58.3752
13:55:44.809,25.6251,52.8752
13:55:44.819,23.4376,49.8752
13:55:44.830,20.3126,45.1252
13:55:44.841,18.0001,41.6252
13:55:44.850,16.3751,39.5627
13:55:44.860,15.2501,37.3751
13:55:44.870,15.1251,36.3126
13:55:44.879,12.9375,35.6251
13:55:44.890,12.375,34.2501
13:55:44.899,11.6875,33.1251
13:55:44.911,10.5625,33.6876
13:55:44.920,10.1875,31.8126
13:55:44.931,9.125,29.2501
13:55:44.940,8.0625,29.2501
13:55:44.949,6.0625,25.7501
13:55:44.959,5.6875,24.1251
13:55:44.970,4.1875,20.8126
13:55:44.980,1.25,18.4376
13:55:44.990,0.3125,15.3126
13:55:44.999,-1.625,13
13:55:45.009,-3.1875,10.5
13:55:45.026,-4.375,6.875
13:55:45.032,-6.75,3.3125
13:55:45.039,-8.375,-0.25
13:55:45.049,-10.3125,-4
13:55:45.061,-12.5,-6.0625
13:55:45.069,-13.6876,-10.1875
13:55:45.089,-14.8126,-11.75
13:55:45.091,-16.0001,-14.8751
13:55:45.125,-17.5001,-17.0626
13:55:45.128,-19.3126,-19.3751
13:55:45.129,-20.3751,-21.8126
13:55:45.131,-22.1876,-24.7501
13:55:45.160,-24.1876,-27.0001
13:55:45.163,-25.1876,-29.2501
13:55:45.165,-26.7501,-30.5001
13:55:45.231,-26.7501,-32.7501
13:55:45.231,-28.2501,-33.7501
13:55:45.244,-28.8751,-34.9376
13:55:45.263,-29.2501,-37.2501
13:55:45.263,-30.7501,-37.5626
13:55:45.263,-31.6876,-40.3752
13:55:45.265,-32.1251,-42.2502
13:55:45.267,-33.4376,-43.6252
13:55:45.275,-33.6876,-44.8127
13:55:45.285,-34.5626,-45.7502
13:55:45.295,-34.6251,-46.5002
13:55:45.305,-34.6251,-47.1252
13:55:45.316,-34.8126,-49.3127
13:55:45.326,-34.4376,-47.6877
13:55:45.334,-31.6251,-45.0002
13:55:45.344,-28.0626,-38.5626
13:55:45.366,-21.4376,-28.2501
13:55:45.369,-13.2501,-13.6251
13:55:45.377,-3.8125,3
13:55:45.384,5.125,21.3126
13:55:45.400,12.0625,37.0626
13:55:45.407,19.2501,50.7502
13:55:45.414,28.1251,76.7503
13:55:45.426,27.2501,78.1878
13:55:45.434,25.0626,75.7503
13:55:45.445,22.9376,72.8753
13:55:45.455,19.3751,70.7503
13:55:45.466,17.3751,65.6878
13:55:45.475,14.8751,63.1252
13:55:45.485,12.6875,58.6877
13:55:45.495,10.5625,56.1252
13:55:45.504,8.25,53.0627
13:55:45.514,6.75,49.2502
13:55:45.525,3.75,45.3752
13:55:45.534,1.9375,41.4377
13:55:45.544,-1,37.5626
13:55:45.554,-3.1875,33.3751
13:55:45.564,-5.625,29.9376
13:55:45.577,-6.875,26.0001
13:55:45.586,-7.8125,22.6876
13:55:45.595,-9.625,19.8751
13:55:45.606,-10.375,18.6251
13:55:45.614,-10.6875,18.7501
13:55:45.624,-10.5625,17.8126
13:55:45.634,-10.625,17.4376
13:55:45.646,-10.9375,18.7501
13:55:45.654,-10.5,18.5001
13:55:45.665,-10.5,17.2501
13:55:45.675,-12.125,15.1876
13:55:45.685,-13.8126,13.5626
13:55:45.695,-15.3751,10.4375
13:55:45.706,-17.5001,6.4375
13:55:45.716,-18.5626,5.6875
13:55:45.725,-19.0001,2.9375
13:55:45.735,-20.8751,0.1875
13:55:45.745,-22.0626,-1.9375
13:55:45.754,-23.3126,-5.4375
13:55:45.766,-24.5001,-8.375
13:55:45.774,-26.1876,-10.875
13:55:45.784,-28.7501,-13.9376
13:55:45.795,-30.3126,-18.6251
13:55:45.805,-31.3126,-21.0001
13:55:45.815,-32.7501,-23.1876
13:55:45.854,-33.6251,-27.0001
13:55:45.856,-35.5626,-29.4376
13:55:45.858,-36.8751,-32.6876
13:55:45.861,-39.5002,-36.1251
13:55:45.866,-41.6252,-38.1876
13:55:45.892,-42.1252,-41.6252
13:55:45.895,-44.2502,-44.0002
13:55:45.897,-45.0627,-44.8127
13:55:45.929,-45.3127,-46.9377
13:55:45.932,-46.0002,-48.1252
13:55:45.934,-46.3127,-49.3752
13:55:45.938,-45.9377,-50.5627
13:55:45.945,-47.3752,-51.4377
13:55:45.975,-47.3127,-53.4377
13:55:45.978,-46.8752,-52.3127
13:55:45.980,-47.1877,-54.5002
13:55:45.986,-47.0627,-55.5002
13:55:46.007,-48.0002,-56.0627
13:55:46.011,-48.8752,-57.5627
13:55:46.016,-49.0627,-59.2502
13:55:46.025,-48.8752,-60.1877
13:55:46.039,-49.8127,-60.6877
13:55:46.046,-50.0627,-62.6877
13:55:46.054,-49.8127,-63.1877
13:55:46.067,-50.6252,-64.7502
13:55:46.075,-50.8127,-65.6253
13:55:46.086,-49.6877,-64.0002
13:55:46.096,-46.5627,-60.6252
13:55:46.104,-40.2502,-51.3127
13:55:46.115,-32.4376,-36.5001
13:55:46.126,-22.4376,-20.3751
13:55:46.139,-11.75,0.6875
13:55:46.150,-1.875,19.9376
13:55:46.156,7.75,37.5626
13:55:46.167,13.7501,52.5627
13:55:46.176,18.9376,62.2502
13:55:46.191,21.8751,70.5628
13:55:46.201,22.6876,76.3128
13:55:46.210,23.3751,76.1878
13:55:46.220,23.1876,76.9378
13:55:46.231,21.5001,75.5003
13:55:46.241,20.0626,73.1253
13:55:46.252,18.1876,70.8753
13:55:46.262,16.2501,67.5003
13:55:46.271,15.1251,65.8753
13:55:46.281,14.0001,62.1877
13:55:46.291,13.3751,61.2502
13:55:46.300,11.9375,60.4377
13:55:46.311,10.625,58.0002
13:55:46.321,9.0625,54.3752
13:55:46.330,7.8125,50.4377
13:55:46.340,5.375,47.1877
13:55:46.353,2.375,42.7502
13:55:46.361,1.6875,39.8127
13:55:46.371,1.25,37.0626
13:55:46.381,0.75,35.1251
13:55:46.391,0.3125,35.8126
13:55:46.401,1.0625,35.2501
13:55:46.411,1.5,34.5001
13:55:46.424,2.0625,35.1251
13:55:46.431,2.125,35.5001
13:55:46.441,2.5625,35.3126
13:55:46.453,1.9375,33.9376
13:55:46.461,1.8125,33.0001
13:55:46.471,0.4375,31.3751
13:55:46.503,-0.1875,30.2501
13:55:46.506,-1.5625,26.3126
13:55:46.509,-4.625,22.6251
13:55:46.522,-7.25,20.3751
13:55:46.599,-9.3125,15.0626
13:55:46.630,-12.1875,10
13:55:46.632,-15.0001,6.375
13:55:46.636,-17.3126,3.1875
13:55:46.636,-19.5001,-2.1875
13:55:46.636,-21.3751,-6.1875
13:55:46.641,-22.8126,-9.1875
13:55:46.667,-24.6251,-11.5
13:55:46.671,-26.5001,-15.8751
13:55:46.671,-28.1876,-19.3751
13:55:46.686,-30.5001,-23.4376
13:55:46.693,-32.5626,-25.4376
13:55:46.701,-34.0001,-28.5626
13:55:46.716,-34.0001,-31.5626
13:55:46.732,-35.8126,-34.0626
13:55:46.734,-36.8126,-35.1876
13:55:46.743,-37.2501,-36.3751
13:55:46.751,-37.5001,-39.3752
13:55:46.761,-38.6251,-40.5002
13:55:46.771,-40.0002,-41.5002
13:55:46.781,-39.8752,-43.5627
13:55:46.791,-39.7502,-44.8127
13:55:46.801,-47.0627,-56.9377
13:55:46.811,-46.7502,-58.8127
13:55:46.821,-48.5002,-58.3127
13:55:46.831,-48.0627,-61.2502
13:55:46.841,-48.3752,-60.8127
13:55:46.851,-48.1877,-63.2502
13:55:46.861,-49.0627,-63.6877
13:55:46.873,-49.8752,-65.9378
13:55:46.881,-50.0002,-66.6878
13:55:46.891,-49.0627,-68.1878
13:55:46.902,-47.8127,-65.2502
13:55:46.911,-42.8127,-59.2502
13:55:46.921,-34.9376,-47.8127
13:55:46.931,-26.3751,-32.8126
13:55:46.941,-14.8751,-13.6251
13:55:46.951,-4.9375,6.1875
13:55:46.961,5.125,25.5001
13:55:46.971,13.9376,44.0002
13:55:46.981,20.1876,57.1252
13:55:46.991,26.0626,68.8753
13:55:47.001,27.7501,75.3128
13:55:47.011,29.1876,78.1878
13:55:47.021,28.6251,80.1253
13:55:47.031,27.8126,78.6878
13:55:47.043,25.7501,77.8753
13:55:47.051,24.0626,73.1878
13:55:47.061,22.6251,71.5003
13:55:47.071,20.5001,68.6253
13:55:47.081,18.8126,64.3127
13:55:47.091,17.8126,62.1252
13:55:47.101,15.5626,59.0002
13:55:47.111,14.0626,56.6877
13:55:47.123,13.1876,53.4377
13:55:47.131,11.0625,50.1877
13:55:47.141,10.125,47.5627
13:55:47.153,8.875,43.9377
13:55:47.161,6.75,41.8127
13:55:47.171,5.5625,37.3751
13:55:47.181,3.5,34.4376
13:55:47.191,2.3125,32.0626
13:55:47.201,2.0625,29.4376
13:55:47.211,2.25,29.5626
13:55:47.237,2.8125,29.3751
13:55:47.239,3.0625,31.4376
13:55:47.241,4.875,31.5626
13:55:47.271,5.9375,31.5626
13:55:47.273,5.8125,32.3126
13:55:47.276,6.8125,32.0001
13:55:47.282,6.125,30.3751
13:55:47.321,5.6875,29.6251
13:55:47.323,4.625,28.6876
13:55:47.325,4.9375,26.0001
13:55:47.327,2.6875,23.1251
13:55:47.334,0.9375,20.1876
13:55:47.342,-0.125,17.4376
13:55:47.372,-2.125,13.5001
13:55:47.374,-4.0625,10.625
13:55:47.377,-5.3125,7.3125
13:55:47.383,-6.625,3.625
13:55:47.396,-8.75,0.875
13:55:47.401,-9.625,-2.125
13:55:47.411,-11.375,-5.3125
13:55:47.423,-12.9375,-8.4375
13:55:47.431,-14.3751,-10.125
13:55:47.442,-15.3751,-13.0625
13:55:47.451,-16.7501,-16.5001
13:55:47.461,-19.3751,-20.1251
13:55:47.471,-21.1876,-22.8751
13:55:47.482,-22.8751,-24.5626
13:55:47.491,-23.6251,-26.6251
13:55:47.501,-23.8751,-29.6876
13:55:47.513,-24.6251,-30.2501
13:55:47.521,-24.4376,-30.7501
13:55:47.531,-23.6251,-31.6876
13:55:47.543,-24.1876,-31.6251
13:55:47.551,-23.6251,-32.0001
13:55:47.561,-23.4376,-33.4376
13:55:47.573,-24.3126,-33.3751
13:55:47.582,-25.0001,-36.6251
13:55:47.591,-25.0626,-37.4376
13:55:47.602,-26.1251,-37.1876
13:55:47.611,-25.8126,-40.0627
13:55:47.621,-25.6251,-40.1877
13:55:47.631,-26.2501,-40.7502
13:55:47.641,-26.0001,-41.9377
13:55:47.651,-26.1251,-42.1877
13:55:47.661,-26.5001,-44.2502
13:55:47.671,-26.3751,-44.3127
13:55:47.681,-26.8126,-45.9377
13:55:47.693,-25.9376,-46.0627
13:55:47.701,-24.2501,-44.3752
13:55:47.711,-20.8126,-38.2501
13:55:47.723,-13,-27.1251
13:55:47.731,-4.4375,-12.125
13:55:47.741,6.0625,6.25
13:55:47.751,16.6876,27.0001
13:55:47.761,27.5626,46.0627
13:55:47.771,35.9376,64.1877
13:55:47.798,42.7502,77.7503
13:55:47.799,47.9377,88.8753
13:55:47.808,50.0002,96.5629
13:55:47.811,50.5627,97.7504
13:55:47.821,50.3127,98.7504
13:55:47.831,48.6252,97.1254
13:55:47.843,46.6877,93.8754
13:55:47.851,43.3127,90.4378
13:55:47.861,41.4377,86.3128
13:55:47.877,38.9376,82.0628
13:55:47.883,37.5001,79.3753
13:55:47.892,34.8126,75.8128
13:55:47.903,32.6251,72.3128
13:55:47.917,29.8126,68.7503
13:55:47.924,26.6876,63.7502
13:55:47.931,22.8126,58.5627
13:55:47.941,18.3126,53.1252
13:55:47.951,14.6876,46.6877
13:55:47.961,11.5625,40.6877
13:55:47.971,8.625,36.2501
13:55:47.981,6.625,31.7501
13:55:48.001,5.5,29.4376
13:55:48.003,5.25,28.7501
13:55:48.039,4,27.4376
13:55:48.073,4.9375,26.8126
13:55:48.075,4.4375,26.8751
13:55:48.105,3.625,25.9376
13:55:48.106,4.0625,25.5626
13:55:48.109,3,25.1251
13:55:48.115,2.4375,24.4376
13:55:48.115,0.625,22.2501
13:55:48.115,-0.375,18.8126
13:55:48.123,-3.5625,16.3126
13:55:48.149,-6.8125,10.9375
13:55:48.151,-10.3125,5
13:55:48.153,-13.0625,1
13:55:48.189,-15.0001,-4
13:55:48.192,-17.8126,-7.625
13:55:48.196,-19.0001,-11.75
13:55:48.196,-21.5626,-14.7501
13:55:48.203,-23.2501,-17.8126
13:55:48.215,-24.0626,-21.4376
13:55:48.221,-25.6251,-24.9376
13:55:48.231,-27.8126,-28.1251
13:55:48.241,-28.8126,-30.4376
13:55:48.251,-30.9376,-34.1876
13:55:48.261,-32.2501,-37.0001
13:55:48.271,-34.1251,-39.8752
13:55:48.281,-39.7502,-49.2502
13:55:48.291,-41.8752,-52.0627
13:55:48.301,-43.3752,-55.3127
13:55:48.313,-46.4377,-57.3127
13:55:48.321,-48.5002,-60.0002
13:55:48.331,-50.8752,-64.3752
13:55:48.341,-52.6877,-67.8128
13:55:48.351,-56.0002,-72.5003
13:55:48.362,-58.7502,-76.6253
13:55:48.371,-62.4377,-80.0003
13:55:48.381,-69.2503,-87.5003
13:55:48.394,-78.7503,-96.0004
13:55:48.401,-90.3129,-106.6254
13:55:48.411,-105.6879,-116.8754
13:55:48.422,-112.8129,-120.188
13:55:48.431,-121.813,-125.6255
13:55:48.441,-133.563,-129.563
13:55:48.451,-134.6255,-121.813
13:55:48.462,-111.6254,-87.5003
13:55:48.471,-87.0003,-46.9377
13:55:48.481,-66.5003,-14.5626
13:55:48.491,-45.9377,19.3751
13:55:48.502,-28.7501,49.8127
13:55:48.511,-10.9375,78.9378
13:55:48.522,5.5625,106.9379
13:55:48.533,20.8126,128.7505
13:55:48.541,33.0001,148.0006
13:55:48.551,44.3127,162.9381
13:55:48.561,53.0627,175.8132
13:55:48.571,60.5002,185.9382
13:55:48.581,66.5003,193.6257
13:55:48.595,73.4378,201.1883
13:55:48.601,77.9378,207.6883
13:55:48.611,83.3753,211.3133
13:55:48.621,87.5003,215.8758
13:55:48.631,90.9379,217.1883
13:55:48.641,94.1879,218.4383
13:55:48.651,96.5004,219.6258
13:55:48.661,97.1254,217.7508
13:55:48.672,97.5004,215.2508
13:55:48.681,96.6879,212.6883
13:55:48.693,96.0004,209.5633
13:55:48.701,94.6254,204.0008
13:55:48.712,93.1254,201.4383
13:55:48.721,91.5004,197.1258
13:55:48.733,90.4379,194.7507
13:55:48.741,89.4378,189.8757
13:55:48.766,89.2503,187.3132
13:55:48.768,88.9378,185.5007
13:55:48.771,89.8753,184.0007
13:55:48.796,95.2504,186.9382
13:55:48.801,102.8754,192.7507
13:55:48.802,108.3754,195.2507
13:55:48.831,110.7504,196.9382
13:55:48.833,111.1879,193.6882
13:55:48.836,110.3754,190.0007
13:55:48.842,110.6254,185.2507
13:55:48.868,109.6879,181.0632
13:55:48.871,108.9379,176.0007
13:55:48.872,106.8754,170.3131
13:55:48.902,106.6879,165.8756
13:55:48.904,104.4379,160.6881
13:55:48.907,102.5004,154.0631
13:55:48.912,98.0629,147.6255
13:55:48.937,93.9379,140.8755
13:55:48.938,90.5004,133.188
13:55:48.942,85.0628,125.8755
13:55:48.953,80.6253,117.1879
13:55:48.962,73.7503,109.1254
13:55:48.971,69.8128,100.5629
13:55:48.982,64.4377,94.1254
13:55:48.991,59.0002,86.8128
13:55:49.001,51.3127,77.5003
13:55:49.011,43.0002,67.0628
13:55:49.022,34.0626,57.8752
13:55:49.032,26.5626,49.9377
13:55:49.041,20.3751,44.4377
13:55:49.077,14.8751,39.5002
13:55:49.079,10.1875,35.6251
13:55:49.081,5.8125,31.6876
13:55:49.084,-0.5,27.0001
13:55:49.092,-5.1875,20.6876
13:55:49.102,-7.9375,16.8126
13:55:49.111,-9.125,13.3126
13:55:49.122,-11.625,10.25
13:55:49.132,-14.8126,5.875
13:55:49.142,-17.4376,1
13:55:49.151,-17.1876,0
13:55:49.162,-14.6876,0.5
13:55:49.171,-11.0625,3.125
13:55:49.182,-5.1875,9.5625
13:55:49.201,1.6875,18.1876
13:55:49.207,9.6875,29.0626
13:55:49.223,18.3126,43.1252
13:55:49.224,27.4376,60.6252
13:55:49.232,37.9376,78.9378
13:55:49.243,48.1252,96.6879
13:55:49.251,57.0002,113.3754
13:55:49.262,62.4377,127.563
13:55:49.272,67.3128,138.438
13:55:49.282,69.7503,143.938
13:55:49.292,71.1878,148.7506
13:55:49.301,72.6253,149.8756
13:55:49.312,72.5003,151.5006
13:55:49.322,70.9378,149.0006
13:55:49.332,68.1253,146.813
13:55:49.348,64.1252,140.563
13:55:49.363,60.4377,135.7505
13:55:49.366,57.8752,131.2505
13:55:49.381,54.8752,127.563
13:55:49.385,53.1877,125.188
13:55:49.401,52.7502,122.438
13:55:49.403,52.2502,119.2505
13:55:49.432,51.3127,116.5004
13:55:49.436,51.4377,113.6879
13:55:49.436,49.1877,109.6254
13:55:49.442,48.1252,104.6254
13:55:49.478,44.4377,98.3129
13:55:49.478,41.0627,91.6254
13:55:49.481,39.0626,86.7503
13:55:49.483,37.7501,83.5003
13:55:49.518,39.6252,81.5003
13:55:49.522,41.5002,82.1253
13:55:49.525,44.1877,81.1253
13:55:49.529,45.3752,79.6878
13:55:49.532,45.2502,78.6878
13:55:49.564,44.3752,75.3753
13:55:49.567,40.9377,71.1253
13:55:49.572,37.6876,65.6878
13:55:49.573,34.1251,58.7502
13:55:49.583,28.6876,51.5002
13:55:49.592,24.0626,44.5627
13:55:49.604,20.2501,37.0001
13:55:49.613,17.0001,31.4376
13:55:49.622,14.6251,27.0626
13:55:49.635,11.1875,22.6876
13:55:49.644,9.125,17.9376
13:55:49.652,5.125,12.1875
13:55:49.662,0.8125,6.0625
13:55:49.672,-3.125,-0.6875
13:55:49.683,-7.6875,-5.9375
13:55:49.692,-11.5625,-11.625
13:55:49.702,-14.5001,-16.8126
13:55:49.714,-17.7501,-20.2501
13:55:49.723,-21.3751,-23.9376
13:55:49.732,-25.4376,-26.8126
13:55:49.743,-28.2501,-30.0626
13:55:49.752,-33.1251,-32.5626
13:55:49.762,-36.3751,-33.8751
13:55:49.772,-38.6876,-36.1876
13:55:49.782,-41.3127,-36.6876
13:55:49.794,-40.8127,-34.3751
13:55:49.802,-35.4376,-28.0001
13:55:49.812,-27.7501,-18.6251
13:55:49.826,-18.3751,-9.4375
13:55:49.833,-10.9375,-1.5
13:55:49.843,-3.625,4.75
13:55:49.852,-2.375,6
13:55:49.862,-3.8125,2.5625
13:55:49.874,-5.4375,-0.5
13:55:49.882,-6.375,-3.5625
13:55:49.892,-6.0625,-4.375
13:55:49.902,-7.0625,-5.125
13:55:49.912,-7,-7.9375
13:55:49.923,-9.125,-9.1875
13:55:49.932,-8.25,-10.75
13:55:49.942,-5.5,-6.4375
13:55:49.952,0.4375,0.125
13:55:49.962,7.125,10.5
13:55:49.972,13.8126,23.1251
13:55:49.982,22.3126,36.5626
13:55:49.992,28.2501,49.7502
13:55:50.002,33.8751,61.0627
13:55:50.012,38.7501,70.5003
13:55:50.022,40.6252,76.3753
13:55:50.034,42.0627,79.5003
13:55:50.042,41.6877,79.4378
13:55:50.052,40.9377,78.1878
13:55:50.063,37.0001,72.1878
13:55:50.072,33.6251,66.4378
13:55:50.082,29.5001,58.0627
13:55:50.092,26.6251,52.0002
13:55:50.106,23.8751,47.8752
13:55:50.113,24.4376,43.7502
13:55:50.122,24.5626,41.5627
13:55:50.132,26.2501,40.6877
13:55:50.159,28.0001,39.6877
13:55:50.163,29.1876,37.6876
13:55:50.163,29.1251,36.0001
13:55:50.201,29.9376,33.1251
13:55:50.204,31.1876,30.1876
13:55:50.206,31.9376,27.9376
13:55:50.209,31.8126,25.8126
13:55:50.213,30.3751,22.5001
13:55:50.238,28.4376,19.0001
13:55:50.242,26.0626,15.2501
13:55:50.244,24.6876,12.6875
13:55:50.281,24.7501,12.8125
13:55:50.283,25.4376,11.5625
13:55:50.286,25.0001,11.5625
13:55:50.291,24.3126,11.125
13:55:50.298,21.4376,9.3125
13:55:50.320,18.8751,5.375
13:55:50.323,14.5001,1
13:55:50.327,10.8125,-4.6875
13:55:50.358,6,-9.8125
13:55:50.359,-0.4375,-17.7501
13:55:50.361,-8.75,-25.5626
13:55:50.367,-18.2501,-34.8126
13:55:50.379,-27.1251,-44.5002
13:55:50.387,-36.5626,-49.6252
13:55:50.397,-45.5002,-55.0002
13:55:50.407,-51.8127,-59.1252
13:55:50.418,-57.6877,-59.6877
13:55:50.427,-55.1252,-54.0002
13:55:50.437,-37.1251,-28.0626
13:55:50.447,-20.7501,-7.875
13:55:50.457,-3.5625,12.875
13:55:50.467,12.125,29.2501
13:55:50.482,24.9376,43.9377
13:55:50.488,35.6876,55.7502
13:55:50.504,44.5002,63.1877
13:55:50.520,49.5002,69.6878
13:55:50.521,52.1252,72.0003
13:55:50.527,52.4377,71.6878
13:55:50.537,52.5002,72.0628
13:55:50.547,53.2502,72.3128
13:55:50.557,52.3127,70.4378
13:55:50.567,51.1252,69.3753
13:55:50.577,51.0627,67.5003
13:55:50.588,48.5002,64.3127
13:55:50.597,46.2502,58.8127
13:55:50.607,41.1877,52.4377
13:55:50.619,35.8126,44.4377
13:55:50.627,30.6251,35.8751
13:55:50.637,23.1251,25.6876
13:55:50.659,17.0001,16.9376
